0,0
0.00390625,0.0001203125
0.0078125,0.0002419921875
0.01171875,0.000355078125
0.015625,0.00045302734375
0.01953125,0.00053271484375
0.0234375,0.0005962890625
0.02734375,0.0006474609375
0.03125,0.00069189453125
0.03515625,0.0007341796875
0.0390625,0.00077822265625
0.04296875,0.00082470703125
0.046875,0.00086923828125
0.05078125,0.000902734375
0.0546875,0.0009166015625
0.05859375,0.0009087890625
0.0625,0.0008875
0.06640625,0.00086513671875
0.0703125,0.0008494140625
0.07421875,0.0008373046875
0.078125,0.00081787109375
0.08203125,0.00077861328125
0.0859375,0.000716796875
0.08984375,0.00064140625
0.09375,0.00057275390625
0.09765625,0.0005306640625
0.1015625,0.00052509765625
0.10546875,0.0005517578125
0.109375,0.00059345703125
0.11328125,0.00062939453125
0.1171875,0.00064248046875
0.12109375,0.0006248046875
0.125,0.00057705078125
0.12890625,0.00050380859375
0.1328125,0.0004109375
0.13671875,0.00030810546875
0.140625,0.0002091796875
0.14453125,0.000132421875
0.1484375,0.0000900390625
0.15234375,0.000080859375
0.15625,0.00008720703125
0.16015625,0.00008212890625
0.1640625,0.0000490234375
0.16796875,-0.00000654296875
0.171875,-0.0000568359375
0.17578125,-0.00006484375
0.1796875,-0.000010546875
0.18359375,0.0000966796875
0.1875,0.00021845703125
0.19140625,0.00030732421875
0.1953125,0.00032919921875
0.19921875,0.00028095703125
0.203125,0.000191015625
0.20703125,0.00010927734375
0.2109375,0.00008349609375
0.21484375,0.00013837890625
0.21875,0.0002638671875
0.22265625,0.00041884765625
0.2265625,0.00055
0.23046875,0.0006115234375
0.234375,0.0005810546875
0.23828125,0.00046611328125
0.2421875,0.00029892578125
0.24609375,0.0001224609375
0.25,-0.0000240234375
0.25390625,-0.00011845703125
0.2578125,-0.00016884765625
0.26171875,-0.00022763671875
0.265625,-0.00039970703125
0.26953125,-0.00082783203125
0.2734375,-0.0016484375
0.27734375,-0.00292890625
0.28125,-0.00462119140625
0.28515625,-0.00655302734375
0.2890625,-0.00846826171875
0.29296875,-0.01010244140625
0.296875,-0.011263671875
0.30078125,-0.01188486328125
0.3046875,-0.01202783203125
0.30859375,-0.01184501953125
0.3125,-0.0115169921875
0.31640625,-0.01119736328125
0.3203125,-0.010981640625
0.32421875,-0.01090078125
0.328125,-0.010931640625
0.33203125,-0.011020703125
0.3359375,-0.01111162109375
0.33984375,-0.01116962890625
0.34375,-0.01119375
0.34765625,-0.0112111328125
0.3515625,-0.0112572265625
0.35546875,-0.01135673828125
0.359375,-0.01151005859375
0.36328125,-0.01169248046875
0.3671875,-0.01186005859375
0.37109375,-0.01196591796875
0.375,-0.011977734375
0.37890625,-0.0118916015625
0.3828125,-0.0117357421875
0.38671875,-0.0115634765625
0.390625,-0.0114400390625
0.39453125,-0.01141787109375
0.3984375,-0.0115173828125
0.40234375,-0.0117099609375
0.40625,-0.01192568359375
0.41015625,-0.01207607421875
0.4140625,-0.012088671875
0.41796875,-0.01193544921875
0.421875,-0.01164267578125
0.42578125,-0.0112837890625
0.4296875,-0.01095556640625
0.43359375,-0.010743359375
0.4375,-0.01068994140625
0.44140625,-0.01077724609375
0.4453125,-0.01093564453125
0.44921875,-0.01107919921875
0.453125,-0.01114462890625
0.45703125,-0.01111904296875
0.4609375,-0.01103486328125
0.46484375,-0.01094423828125
0.46875,-0.01088515625
0.47265625,-0.0108607421875
0.4765625,-0.0108421875
0.48046875,-0.0107892578125
0.484375,-0.01067568359375
0.48828125,-0.0105078125
0.4921875,-0.01032685546875
0.49609375,-0.0101943359375
0.5,-0.01016689453125
0.50390625,-0.010269140625
0.5078125,-0.01047529296875
0.51171875,-0.0107134765625
0.515625,-0.01089287109375
0.51953125,-0.0109400390625
0.5234375,-0.01082890625
0.52734375,-0.0105888671875
0.53125,-0.0102869140625
0.53515625,-0.009996875
0.5390625,-0.009772265625
0.54296875,-0.0096322265625
0.546875,-0.009566015625
0.55078125,-0.00954541015625
0.5546875,-0.00954072265625
0.55859375,-0.00953349609375
0.5625,-0.00952568359375
0.56640625,-0.00953583984375
0.5703125,-0.00958427734375
0.57421875,-0.009678125
0.578125,-0.00980439453125
0.58203125,-0.00993916015625
0.5859375,-0.0100630859375
0.58984375,-0.01017548828125
0.59375,-0.01029208984375
0.59765625,-0.01042998046875
0.6015625,-0.01059111328125
0.60546875,-0.01075322265625
0.609375,-0.010876953125
0.61328125,-0.0109232421875
0.6171875,-0.01087578125
0.62109375,-0.01074990234375
0.625,-0.01059013671875
0.62890625,-0.01044775390625
0.6328125,-0.0103611328125
0.63671875,-0.01033740234375
0.640625,-0.0103525390625
0.64453125,-0.0103654296875
0.6484375,-0.010338671875
0.65234375,-0.01025576171875
0.65625,-0.010127734375
0.66015625,-0.00998505859375
0.6640625,-0.00986337890625
0.66796875,-0.0097892578125
0.671875,-0.0097716796875
0.67578125,-0.00980048828125
0.6796875,-0.0098498046875
0.68359375,-0.00988857421875
0.6875,-0.00989169921875
0.69140625,-0.0098490234375
0.6953125,-0.00976689453125
0.69921875,-0.009667578125
0.703125,-0.00957978515625
0.70703125,-0.00953037109375
0.7109375,-0.00953564453125
0.71484375,-0.00959892578125
0.71875,-0.00971005859375
0.72265625,-0.00984716796875
0.7265625,-0.0099833984375
0.73046875,-0.01009287109375
0.734375,-0.0101607421875
0.73828125,-0.010186328125
0.7421875,-0.01018115234375
0.74609375,-0.010159765625
0.75,-0.0101333984375
0.75390625,-0.01010791015625
0.7578125,-0.01008896484375
0.76171875,-0.01008076171875
0.765625,-0.0100861328125
0.76953125,-0.01010244140625
0.7734375,-0.010121875
0.77734375,-0.010138671875
0.78125,-0.010154296875
0.78515625,-0.01017626953125
0.7890625,-0.01021044921875
0.79296875,-0.01025205078125
0.796875,-0.01028671875
0.80078125,-0.01030029296875
0.8046875,-0.01029306640625
0.80859375,-0.01028544921875
0.8125,-0.01030888671875
0.81640625,-0.01038837890625
0.8203125,-0.0105248046875
0.82421875,-0.01069052734375
0.828125,-0.0108427734375
0.83203125,-0.0109390625
0.8359375,-0.01095400390625
0.83984375,-0.01088818359375
0.84375,-0.01076494140625
0.84765625,-0.01062353515625
0.8515625,-0.0105060546875
0.85546875,-0.01044091796875
0.859375,-0.01043037109375
0.86328125,-0.01044560546875
0.8671875,-0.01043984375
0.87109375,-0.010369921875
0.875,-0.010218359375
0.87890625,-0.01000244140625
0.8828125,-0.009766796875
0.88671875,-0.0095615234375
0.890625,-0.00942236328125
0.89453125,-0.0093580078125
0.8984375,-0.00935087890625
0.90234375,-0.00937294921875
0.90625,-0.00940146484375
0.91015625,-0.00943173828125
0.9140625,-0.0094755859375
0.91796875,-0.00954833984375
0.921875,-0.0096548828125
0.92578125,-0.00978076171875
0.9296875,-0.00989853515625
0.93359375,-0.009979296875
0.9375,-0.01000673828125
0.94140625,-0.00998486328125
0.9453125,-0.00993505859375
0.94921875,-0.0098853515625
0.953125,-0.00985166015625
0.95703125,-0.0098283203125
0.9609375,-0.00978701171875
0.96484375,-0.00969697265625
0.96875,-0.00954443359375
0.97265625,-0.00934775390625
0.9765625,-0.009154296875
0.98046875,-0.00901904296875
0.984375,-0.008978515625
0.98828125,-0.00903486328125
0.9921875,-0.00915458984375
0.99609375,-0.00928662109375
1,-0.00938017578125
1.00390625,-0.00940224609375
1.0078125,-0.00934697265625
1.01171875,-0.00923642578125
1.015625,-0.009114453125
1.01953125,-0.00903095703125
1.0234375,-0.00902021484375
1.02734375,-0.009083984375
1.03125,-0.009190234375
1.03515625,-0.0092888671875
1.0390625,-0.00933818359375
1.04296875,-0.00932373046875
1.046875,-0.0092658203125
1.05078125,-0.00920419921875
1.0546875,-0.00917734375
1.05859375,-0.00920361328125
1.0625,-0.00927509765625
1.06640625,-0.00936513671875
1.0703125,-0.0094447265625
1.07421875,-0.00949951171875
1.078125,-0.009538671875
1.08203125,-0.00958828125
1.0859375,-0.009674609375
1.08984375,-0.00980380859375
1.09375,-0.009951953125
1.09765625,-0.0100703125
1.1015625,-0.01010712890625
1.10546875,-0.01003232421875
1.109375,-0.00985166015625
1.11328125,-0.0096080078125
1.1171875,-0.00936640625
1.12109375,-0.00919052734375
1.125,-0.0091203125
1.12890625,-0.00915703125
1.1328125,-0.009266015625
1.13671875,-0.0093953125
1.140625,-0.00950087890625
1.14453125,-0.00956181640625
1.1484375,-0.0095814453125
1.15234375,-0.00957685546875
1.15625,-0.0095630859375
1.16015625,-0.00954267578125
1.1640625,-0.0095068359375
1.16796875,-0.00944169921875
1.171875,-0.00933837890625
1.17578125,-0.0091978515625
1.1796875,-0.009030859375
1.18359375,-0.0088552734375
1.1875,-0.008691796875
1.19140625,-0.00856328125
1.1953125,-0.008487890625
1.19921875,-0.00847958984375
1.203125,-0.00854296875
1.20703125,-0.00867353515625
1.2109375,-0.00885400390625
1.21484375,-0.00905546875
1.21875,-0.0092447265625
1.22265625,-0.00939921875
1.2265625,-0.0095265625
1.23046875,-0.00966455078125
1.234375,-0.0098615234375
1.23828125,-0.01014443359375
1.2421875,-0.01049423828125
1.24609375,-0.010841015625
1.25,-0.011090234375
1.25390625,-0.01116240234375
1.2578125,-0.0110322265625
1.26171875,-0.01074189453125
1.265625,-0.010384375
1.26953125,-0.01006513671875
1.2734375,-0.00986171875
1.27734375,-0.00980068359375
1.28125,-0.00985634765625
1.28515625,-0.00997177734375
1.2890625,-0.0100890625
1.29296875,-0.01017578125
1.296875,-0.0102330078125
1.30078125,-0.01028623046875
1.3046875,-0.01036162109375
1.30859375,-0.01046748046875
1.3125,-0.01058994140625
1.31640625,-0.01070478515625
1.3203125,-0.010794921875
1.32421875,-0.01086201171875
1.328125,-0.0109173828125
1.33203125,-0.010953515625
1.3359375,-0.01090634765625
1.33984375,-0.010643359375
1.34375,-0.0099951171875
1.34765625,-0.00883115234375
1.3515625,-0.00713916015625
1.35546875,-0.00506552734375
1.359375,-0.0028869140625
1.36328125,-0.000926171875
1.3671875,0.0005529296875
1.37109375,0.0014232421875
1.375,0.001715625
1.37890625,0.00158173828125
1.3828125,0.00122900390625
1.38671875,0.0008529296875
1.390625,0.00059453125
1.39453125,0.00052470703125
1.3984375,0.000647265625
1.40234375,0.000914453125
1.40625,0.001246875
1.41015625,0.00155771484375
1.4140625,0.0017779296875
1.41796875,0.00187294921875
1.421875,0.001846484375
1.42578125,0.0017333984375
1.4296875,0.00158203125
1.43359375,0.001438671875
1.4375,0.0013333984375
1.44140625,0.00127529296875
1.4453125,0.00125498046875
1.44921875,0.00125283203125
1.453125,0.0012498046875
1.45703125,0.0012337890625
1.4609375,0.00120458984375
1.46484375,0.00117509765625
1.46875,0.00116884765625
1.47265625,0.00121279296875
1.4765625,0.0013251953125
1.48046875,0.00151005859375
1.484375,0.0017552734375
1.48828125,0.00204150390625
1.4921875,0.002349609375
1.49609375,0.00266279296875
1.5,0.002962109375
1.50390625,0.0032216796875
1.5078125,0.00341220703125
1.51171875,0.00351123046875
1.515625,0.0035130859375
1.51953125,0.00343251953125
1.5234375,0.00330107421875
1.52734375,0.003160546875
1.53125,0.00305126953125
1.53515625,0.00299921875
1.5390625,0.0030087890625
1.54296875,0.00306396484375
1.546875,0.003137109375
1.55078125,0.00320029296875
1.5546875,0.003234765625
1.55859375,0.0032353515625
1.5625,0.0032123046875
1.56640625,0.00318720703125
1.5703125,0.00318447265625
1.57421875,0.00322197265625
1.578125,0.0033033203125
1.58203125,0.00341552734375
1.5859375,0.00353447265625
1.58984375,0.003634765625
1.59375,0.00369599609375
1.59765625,0.0037078125
1.6015625,0.0036705078125
1.60546875,0.0035955078125
1.609375,0.003500390625
1.61328125,0.0034037109375
1.6171875,0.00332333984375
1.62109375,0.00327431640625
1.625,0.00326640625
1.62890625,0.0032958984375
1.6328125,0.00334072265625
1.63671875,0.00336552734375
1.640625,0.0033357421875
1.64453125,0.0032373046875
1.6484375,0.00308623046875
1.65234375,0.00292529296875
1.65625,0.002805078125
1.66015625,0.0027599609375
1.6640625,0.00278916015625
1.66796875,0.002857421875
1.671875,0.0029150390625
1.67578125,0.0029240234375
1.6796875,0.00287431640625
1.68359375,0.0027810546875
1.6875,0.00266767578125
1.69140625,0.00255029296875
1.6953125,0.0024310546875
1.69921875,0.00230185546875
1.703125,0.00215556640625
1.70703125,0.00199755859375
1.7109375,0.0018515625
1.71484375,0.00175478515625
1.71875,0.00174306640625
1.72265625,0.0018322265625
1.7265625,0.00200400390625
1.73046875,0.00220869140625
1.734375,0.00238154296875
1.73828125,0.00247265625
1.7421875,0.00246904296875
1.74609375,0.00240244140625
1.75,0.00233427734375
1.75390625,0.0023287109375
1.7578125,0.002421875
1.76171875,0.0026033203125
1.765625,0.00281806640625
1.76953125,0.0029884765625
1.7734375,0.00304990234375
1.77734375,0.00298046875
1.78125,0.0028103515625
1.78515625,0.00260703125
1.7890625,0.00244384765625
1.79296875,0.00237060546875
1.796875,0.00239794921875
1.80078125,0.00250078125
1.8046875,0.00263466796875
1.80859375,0.0027572265625
1.8125,0.00284287109375
1.81640625,0.0028876953125
1.8203125,0.002903515625
1.82421875,0.00290791015625
1.828125,0.00291171875
1.83203125,0.0029130859375
1.8359375,0.00290126953125
1.83984375,0.00286611328125
1.84375,0.002808984375
1.84765625,0.00274677734375
1.8515625,0.00270576171875
1.85546875,0.002708203125
1.859375,0.002758984375
1.86328125,0.00283818359375
1.8671875,0.00290517578125
1.87109375,0.002912890625
1.875,0.0028255859375
1.87890625,0.0026345703125
1.8828125,0.00236630859375
1.88671875,0.00207900390625
1.890625,0.00184619140625
1.89453125,0.00173125
1.8984375,0.0017642578125
1.90234375,0.00193359375
1.90625,0.0021921875
1.91015625,0.0024736328125
1.9140625,0.0027123046875
1.91796875,0.002862890625
1.921875,0.00291328125
1.92578125,0.00288603515625
1.9296875,0.00282509765625
1.93359375,0.00277431640625
1.9375,0.0027587890625
1.94140625,0.0027771484375
1.9453125,0.0028087890625
1.94921875,0.00282626953125
1.953125,0.00280810546875
1.95703125,0.002746875
1.9609375,0.00265234375
1.96484375,0.002546484375
1.96875,0.00245625
1.97265625,0.00240341796875
1.9765625,0.00239873046875
1.98046875,0.0024404296875
1.984375,0.00251533203125
1.98828125,0.00260166015625
1.9921875,0.002676171875
1.99609375,0.00271884765625
2,0.00272021484375
2.00390625,0.00268427734375
2.0078125,0.0026255859375
2.01171875,0.00256416015625
2.015625,0.00251826171875
2.01953125,0.0024966796875
2.0234375,0.0024953125
2.02734375,0.0024986328125
2.03125,0.00248984375
2.03515625,0.00245947265625
2.0390625,0.002408203125
2.04296875,0.002341796875
2.046875,0.00226708984375
2.05078125,0.0021888671875
2.0546875,0.00211455078125
2.05859375,0.002056640625
2.0625,0.002034375
2.06640625,0.00206630859375
2.0703125,0.0021599609375
2.07421875,0.00230302734375
2.078125,0.00246279296875
2.08203125,0.0025962890625
2.0859375,0.0026681640625
2.08984375,0.00266904296875
2.09375,0.0026208984375
2.09765625,0.00256787109375
2.1015625,0.002555859375
2.10546875,0.00261416015625
2.109375,0.00274111328125
2.11328125,0.002903515625
2.1171875,0.00304755859375
2.12109375,0.00311884765625
2.125,0.0030849609375
2.12890625,0.00295009765625
2.1328125,0.002751953125
2.13671875,0.0025458984375
2.140625,0.0023826171875
2.14453125,0.002290234375
2.1484375,0.00226943359375
2.15234375,0.002300390625
2.15625,0.002355078125
2.16015625,0.0024078125
2.1640625,0.00244140625
2.16796875,0.0024482421875
2.171875,0.0024287109375
2.17578125,0.00239140625
2.1796875,0.0023517578125
2.18359375,0.00232724609375
2.1875,0.0023279296875
2.19140625,0.0023494140625
2.1953125,0.00237548828125
2.19921875,0.00238818359375
2.203125,0.002380078125
2.20703125,0.00235810546875
2.2109375,0.0023388671875
2.21484375,0.00234013671875
2.21875,0.0023712890625
2.22265625,0.00242841796875
2.2265625,0.00249658203125
2.23046875,0.00255908203125
2.234375,0.0026078125
2.23828125,0.00264462890625
2.2421875,0.0026751953125
2.24609375,0.0026990234375
2.25,0.002705078125
2.25390625,0.00267763671875
2.2578125,0.00260888671875
2.26171875,0.00250966796875
2.265625,0.0024107421875
2.26953125,0.002353515625
2.2734375,0.00237158203125
2.27734375,0.00247314453125
2.28125,0.0026314453125
2.28515625,0.00279482421875
2.2890625,0.00291142578125
2.29296875,0.00295478515625
2.296875,0.00293173828125
2.30078125,0.00287041015625
2.3046875,0.00279921875
2.30859375,0.00272890625
2.3125,0.0026494140625
2.31640625,0.00254365234375
2.3203125,0.0024091796875
2.32421875,0.0022798828125
2.328125,0.00223037109375
2.33203125,0.00235341796875
2.3359375,0.00271611328125
2.33984375,0.00332109375
2.34375,0.0040953125
2.34765625,0.00491591796875
2.3515625,0.0056576171875
2.35546875,0.00623515625
2.359375,0.0066263671875
2.36328125,0.006869140625
2.3671875,0.00704072265625
2.37109375,0.00722060546875
2.375,0.00745556640625
2.37890625,0.0077462890625
2.3828125,0.00805498046875
2.38671875,0.00833232421875
2.390625,0.008544921875
2.39453125,0.0086916015625
2.3984375,0.0088005859375
2.40234375,0.00890869140625
2.40625,0.009031640625
2.41015625,0.00914228515625
2.4140625,0.00917626953125
2.41796875,0.0090634765625
2.421875,0.00876142578125
2.42578125,0.0082779296875
2.4296875,0.007671875
2.43359375,0.00704287109375
2.4375,0.0065029296875
2.44140625,0.00613642578125
2.4453125,0.00596904296875
2.44921875,0.00595869140625
2.453125,0.00601552734375
2.45703125,0.006047265625
2.4609375,0.00599814453125
2.46484375,0.0058697265625
2.46875,0.00570576171875
2.47265625,0.005563671875
2.4765625,0.00548623046875
2.48046875,0.0054859375
2.484375,0.00554208984375
2.48828125,0.00561201171875
2.4921875,0.00564482421875
2.49609375,0.005604296875
2.5,0.005483203125
2.50390625,0.0053060546875
2.5078125,0.00511689453125
2.51171875,0.0049603515625
2.515625,0.00486669921875
2.51953125,0.00484150390625
2.5234375,0.00486865234375
2.52734375,0.00491640625
2.53125,0.00494921875
2.53515625,0.004941796875
2.5390625,0.0048890625
2.54296875,0.004807421875
2.546875,0.00472392578125
2.55078125,0.00466044921875
2.5546875,0.004621484375
2.55859375,0.00459345703125
2.5625,0.00455625
2.56640625,0.0044986328125
2.5703125,0.00442763671875
2.57421875,0.004361328125
2.578125,0.00431298828125
2.58203125,0.00427861328125
2.5859375,0.004237109375
2.58984375,0.004166015625
2.59375,0.004058203125
2.59765625,0.00393115234375
2.6015625,0.003822265625
2.60546875,0.00377080078125
2.609375,0.00379638671875
2.61328125,0.0038833984375
2.6171875,0.0039853515625
2.62109375,0.0040447265625
2.625,0.0040193359375
2.62890625,0.0038990234375
2.6328125,0.00370458984375
2.63671875,0.0034744140625
2.640625,0.00324990234375
2.64453125,0.0030634765625
2.6484375,0.00293681640625
2.65234375,0.00287958984375
2.65625,0.002887890625
2.66015625,0.00293935546875
2.6640625,0.0029955078125
2.66796875,0.00301201171875
2.671875,0.00295791015625
2.67578125,0.00283251953125
2.6796875,0.0026734375
2.68359375,0.002543359375
2.6875,0.0025056640625
2.69140625,0.0025916015625
2.6953125,0.00277890625
2.69921875,0.00299619140625
2.703125,0.0031525390625
2.70703125,0.0031814453125
2.7109375,0.00307451171875
2.71484375,0.00288662109375
2.71875,0.00270947265625
2.72265625,0.00262763671875
2.7265625,0.0026783203125
2.73046875,0.002835546875
2.734375,0.00302265625
2.73828125,0.00314970703125
2.7421875,0.00315380859375
2.74609375,0.0030255859375
2.75,0.0028111328125
2.75390625,0.00258720703125
2.7578125,0.0024267578125
2.76171875,0.00236533203125
2.765625,0.00239091796875
2.76953125,0.00245400390625
2.7734375,0.0024970703125
2.77734375,0.00248388671875
2.78125,0.0024142578125
2.78515625,0.00231806640625
2.7890625,0.00223349609375
2.79296875,0.002185546875
2.796875,0.00217412109375
2.80078125,0.002178515625
2.8046875,0.002173828125
2.80859375,0.0021470703125
2.8125,0.002105078125
2.81640625,0.00206806640625
2.8203125,0.00205576171875
2.82421875,0.00207451171875
2.828125,0.00211708984375
2.83203125,0.00217099609375
2.8359375,0.0022287109375
2.83984375,0.0022921875
2.84375,0.00236962890625
2.84765625,0.002467578125
2.8515625,0.0025841796875
2.85546875,0.002705078125
2.859375,0.00280703125
2.86328125,0.00286494140625
2.8671875,0.0028607421875
2.87109375,0.00279072265625
2.875,0.0026677734375
2.87890625,0.0025173828125
2.8828125,0.002367578125
2.88671875,0.0022408203125
2.890625,0.00215185546875
2.89453125,0.0021060546875
2.8984375,0.00209912109375
2.90234375,0.0021142578125
2.90625,0.0021244140625
2.91015625,0.0021013671875
2.9140625,0.002031640625
2.91796875,0.00193173828125
2.921875,0.00184931640625
2.92578125,0.00184794921875
2.9296875,0.0019765625
2.93359375,0.002244140625
2.9375,0.00260615234375
2.94140625,0.0029771484375
2.9453125,0.003259375
2.94921875,0.00337626953125
2.953125,0.00329609375
2.95703125,0.00303935546875
2.9609375,0.00266767578125
2.96484375,0.002263671875
2.96875,0.00190703125
2.97265625,0.00165693359375
2.9765625,0.001544140625
2.98046875,0.001569921875
2.984375,0.0017107421875
2.98828125,0.00192236328125
2.9921875,0.0021478515625
2.99609375,0.0023306640625
3,0.002435546875
3.00390625,0.00246591796875
3.0078125,0.0024662109375
3.01171875,0.00250146484375
3.015625,0.0026248046875
3.01953125,0.00284814453125
3.0234375,0.00313486328125
3.02734375,0.0034138671875
3.03125,0.00361328125
3.03515625,0.00368857421875
3.0390625,0.00364228515625
3.04296875,0.00352197265625
3.046875,0.00339892578125
3.05078125,0.003336328125
3.0546875,0.00336005859375
3.05859375,0.00344345703125
3.0625,0.00351826171875
3.06640625,0.00350830078125
3.0703125,0.0033697265625
3.07421875,0.0031185546875
3.078125,0.00282685546875
3.08203125,0.00258955078125
3.0859375,0.00247890625
3.08984375,0.0025109375
3.09375,0.0026375
3.09765625,0.00277236328125
3.1015625,0.00283369140625
3.10546875,0.00278583984375
3.109375,0.00265693359375
3.11328125,0.00252275390625
3.1171875,0.0024646484375
3.12109375,0.0025228515625
3.125,0.00266845703125
3.12890625,0.0028126953125
3.1328125,0.00285224609375
3.13671875,0.00272646484375
3.140625,0.0024568359375
3.14453125,0.00214384765625
3.1484375,0.00192041015625
3.15234375,0.00188525390625
3.15625,0.00205361328125
3.16015625,0.002351171875
3.1640625,0.002652734375
3.16796875,0.00284423828125
3.171875,0.002873828125
3.17578125,0.002764453125
3.1796875,0.002590625
3.18359375,0.002435546875
3.1875,0.00235400390625
3.19140625,0.00235625
3.1953125,0.0024203125
3.19921875,0.00251376953125
3.203125,0.00261513671875
3.20703125,0.00271953125
3.2109375,0.00283037109375
3.21484375,0.002945703125
3.21875,0.00304794921875
3.22265625,0.0031025390625
3.2265625,0.0030689453125
3.23046875,0.00292001953125
3.234375,0.00266171875
3.23828125,0.00233779296875
3.2421875,0.00201669921875
3.24609375,0.00175927734375
3.25,0.00159091796875
3.25390625,0.001492578125
3.2578125,0.00142021484375
3.26171875,0.00133671875
3.265625,0.00123935546875
3.26953125,0.00116396484375
3.2734375,0.00116591796875
3.27734375,0.0012880859375
3.28125,0.00153359375
3.28515625,0.0018576171875
3.2890625,0.00218359375
3.29296875,0.002437109375
3.296875,0.00257724609375
3.30078125,0.0026126953125
3.3046875,0.00259287109375
3.30859375,0.00257958984375
3.3125,0.00261513671875
3.31640625,0.0027029296875
3.3203125,0.0028123046875
3.32421875,0.002901953125
3.328125,0.00294814453125
3.33203125,0.0029580078125
3.3359375,0.00296103515625
3.33984375,0.0029884765625
3.34375,0.0030529296875
3.34765625,0.00314384765625
3.3515625,0.0032365234375
3.35546875,0.00330546875
3.359375,0.0033341796875
3.36328125,0.00331689453125
3.3671875,0.0032568359375
3.37109375,0.003162109375
3.375,0.00304267578125
3.37890625,0.00291025390625
3.3828125,0.00277470703125
3.38671875,0.0026431640625
3.390625,0.00251884765625
3.39453125,0.00240498046875
3.3984375,0.00230947265625
3.40234375,0.002246875
3.40625,0.002234375
3.41015625,0.0022845703125
3.4140625,0.0023984375
3.41796875,0.00255966796875
3.421875,0.00273544921875
3.42578125,0.002884375
3.4296875,0.002970703125
3.43359375,0.00297880859375
3.4375,0.00291806640625
3.44140625,0.00282099609375
3.4453125,0.00272841796875
3.44921875,0.0026736328125
3.453125,0.0026689453125
3.45703125,0.0027033203125
3.4609375,0.00275234375
3.46484375,0.00278974609375
3.46875,0.002796875
3.47265625,0.00276455078125
3.4765625,0.00269296875
3.48046875,0.00258779296875
3.484375,0.00245712890625
3.48828125,0.00230791015625
3.4921875,0.00214990234375
3.49609375,0.002000390625
3.5,0.00188740234375
3.50390625,0.001841015625
3.5078125,0.00188056640625
3.51171875,0.002003515625
3.515625,0.00218525390625
3.51953125,0.00238896484375
3.5234375,0.00257890625
3.52734375,0.0027302734375
3.53125,0.00282919921875
3.53515625,0.00286953125
3.5390625,0.00284541015625
3.54296875,0.0027552734375
3.546875,0.00261171875
3.55078125,0.00245078125
3.5546875,0.00232314453125
3.55859375,0.00227099609375
3.5625,0.00230029296875
3.56640625,0.00237314453125
3.5703125,0.00242890625
3.57421875,0.0024189453125
3.578125,0.00233349609375
3.58203125,0.00220693359375
3.5859375,0.00209765625
3.58984375,0.00205478515625
3.59375,0.002087890625
3.59765625,0.00215986328125
3.6015625,0.00220458984375
3.60546875,0.00216484375
3.609375,0.00202578125
3.61328125,0.00182568359375
3.6171875,0.00163896484375
3.62109375,0.001541015625
3.625,0.00157626953125
3.62890625,0.00173974609375
3.6328125,0.00198134765625
3.63671875,0.0022302734375
3.640625,0.00242529296875
3.64453125,0.00253857421875
3.6484375,0.0025802734375
3.65234375,0.00258466796875
3.65625,0.00258603515625
3.66015625,0.00260009765625
3.6640625,0.00262021484375
3.66796875,0.0026259765625
3.671875,0.0025998046875
3.67578125,0.00253935546875
3.6796875,0.0024607421875
3.68359375,0.002393359375
3.6875,0.0023642578125
3.69140625,0.00238486328125
3.6953125,0.00244462890625
3.69921875,0.00251962890625
3.703125,0.00258662109375
3.70703125,0.00263359375
3.7109375,0.00265849609375
3.71484375,0.0026640625
3.71875,0.0026521484375
3.72265625,0.0026248046875
3.7265625,0.00258916015625
3.73046875,0.002558203125
3.734375,0.00255087890625
3.73828125,0.0025841796875
3.7421875,0.0026640625
3.74609375,0.00277763671875
3.75,0.0028939453125
3.75390625,0.00297333984375
3.7578125,0.0029814453125
3.76171875,0.0029013671875
3.765625,0.00273720703125
3.76953125,0.0025095703125
3.7734375,0.00225107421875
3.77734375,0.00200419921875
3.78125,0.0018189453125
3.78515625,0.00174599609375
3.7890625,0.00182099609375
3.79296875,0.002048828125
3.796875,0.00239609375
3.80078125,0.0027966796875
3.8046875,0.00316904296875
3.80859375,0.0034412109375
3.8125,0.003569140625
3.81640625,0.00354970703125
3.8203125,0.00341484375
3.82421875,0.0032205078125
3.828125,0.00302392578125
3.83203125,0.0028638671875
3.8359375,0.00274892578125
3.83984375,0.00265634765625
3.84375,0.00254755859375
3.84765625,0.002389453125
3.8515625,0.00217470703125
3.85546875,0.00192734375
3.859375,0.00169248046875
3.86328125,0.0015177734375
3.8671875,0.0014390625
3.87109375,0.00147431640625
3.875,0.00162392578125
3.87890625,0.0018716796875
3.8828125,0.002184765625
3.88671875,0.0025162109375
3.890625,0.0028138671875
3.89453125,0.0030330078125
3.8984375,0.00314794921875
3.90234375,0.0031568359375
3.90625,0.00308017578125
3.91015625,0.00295390625
3.9140625,0.0028224609375
3.91796875,0.002727734375
3.921875,0.002695703125
3.92578125,0.00272275390625
3.9296875,0.00276650390625
3.93359375,0.00275458984375
3.9375,0.0026119140625
3.94140625,0.00229921875
3.9453125,0.00184404296875
3.94921875,0.00134169921875
3.953125,0.0009236328125
3.95703125,0.00069931640625
3.9609375,0.0007064453125
3.96484375,0.0008939453125
3.96875,0.00115078125
3.97265625,0.001365234375
3.9765625,0.001480078125
3.98046875,0.00151943359375
3.984375,0.00156806640625
3.98828125,0.00171787109375
3.9921875,0.00201064453125
3.99609375,0.00240966796875
4,0.00281728515625
4.00390625,0.0031259765625
4.0078125,0.0032712890625
4.01171875,0.0032591796875
4.015625,0.00315517578125
4.01953125,0.003046875
4.0234375,0.0030013671875
4.02734375,0.00303974609375
4.03125,0.0031359375
4.03515625,0.0032361328125
4.0390625,0.00328916015625
4.04296875,0.00326884765625
4.046875,0.003183203125
4.05078125,0.003064453125
4.0546875,0.0029478515625
4.05859375,0.00285078125
4.0625,0.00276298828125
4.06640625,0.0026572265625
4.0703125,0.0025150390625
4.07421875,0.00234921875
4.078125,0.00220693359375
4.08203125,0.00214697265625
4.0859375,0.002209765625
4.08984375,0.00239287109375
4.09375,0.00264892578125
4.09765625,0.0029021484375
4.1015625,0.00307783203125
4.10546875,0.0031291015625
4.109375,0.00305087890625
4.11328125,0.00287822265625
4.1171875,0.002669140625
4.12109375,0.00248310546875
4.125,0.002357421875
4.12890625,0.0022958984375
4.1328125,0.00227177734375
4.13671875,0.00224267578125
4.140625,0.0021732421875
4.14453125,0.00205146484375
4.1484375,0.00189560546875
4.15234375,0.00174736328125
4.15625,0.00165400390625
4.16015625,0.00164716796875
4.1640625,0.00172734375
4.16796875,0.00186416015625
4.171875,0.0020095703125
4.17578125,0.00211923828125
4.1796875,0.00216845703125
4.18359375,0.00216005859375
4.1875,0.0021181640625
4.19140625,0.00207578125
4.1953125,0.0020591796875
4.19921875,0.00207626953125
4.203125,0.00211416015625
4.20703125,0.0021453125
4.2109375,0.00214150390625
4.21484375,0.0020875
4.21875,0.00198759765625
4.22265625,0.0018609375
4.2265625,0.0017318359375
4.23046875,0.0016208984375
4.234375,0.001544140625
4.23828125,0.00151435546875
4.2421875,0.00154091796875
4.24609375,0.00162431640625
4.25,0.00175087890625
4.25390625,0.00189599609375
4.2578125,0.00203828125
4.26171875,0.0021845703125
4.265625,0.0023921875
4.26953125,0.00277412109375
4.2734375,0.00347373046875
4.27734375,0.00462060546875
4.28125,0.006287109375
4.28515625,0.0084685546875
4.2890625,0.01109130859375
4.29296875,0.01404326171875
4.296875,0.0172125
4.30078125,0.02051357421875
4.3046875,0.02389111328125
4.30859375,0.02730107421875
4.3125,0.03069169921875
4.31640625,0.0339955078125
4.3203125,0.0371359375
4.32421875,0.0400404296875
4.328125,0.04265029296875
4.33203125,0.0449248046875
4.3359375,0.0468365234375
4.33984375,0.04836689453125
4.34375,0.0495056640625
4.34765625,0.05026201171875
4.3515625,0.05067158203125
4.35546875,0.05080185546875
4.359375,0.05074541015625
4.36328125,0.05060341796875
4.3671875,0.050464453125
4.37109375,0.0503833984375
4.375,0.05036982421875
4.37890625,0.05039638671875
4.3828125,0.050423046875
4.38671875,0.05042548828125
4.390625,0.05041064453125
4.39453125,0.0504109375
4.3984375,0.05046064453125
4.40234375,0.05057119140625
4.40625,0.05071943359375
4.41015625,0.05085703125
4.4140625,0.05093427734375
4.41796875,0.05092578125
4.421875,0.050844140625
4.42578125,0.05073408203125
4.4296875,0.05065009765625
4.43359375,0.05063173828125
4.4375,0.05068994140625
4.44140625,0.05080693359375
4.4453125,0.05094794921875
4.44921875,0.0510744140625
4.453125,0.05115654296875
4.45703125,0.051177734375
4.4609375,0.05113603515625
4.46484375,0.05103974609375
4.46875,0.0509029296875
4.47265625,0.05074560546875
4.4765625,0.0505939453125
4.48046875,0.05047666015625
4.484375,0.05041669921875
4.48828125,0.050418359375
4.4921875,0.0504591796875
4.49609375,0.05049560546875
4.5,0.0504806640625
4.50390625,0.0503865234375
4.5078125,0.05022109375
4.51171875,0.05002666015625
4.515625,0.0498654296875
4.51953125,0.04979599609375
4.5234375,0.04984912109375
4.52734375,0.0500162109375
4.53125,0.05025615234375
4.53515625,0.050519921875
4.5390625,0.05077587890625
4.54296875,0.05101669921875
4.546875,0.05124638671875
4.55078125,0.051455859375
4.5546875,0.051611328125
4.55859375,0.05166435546875
4.5625,0.05158251953125
4.56640625,0.0513787109375
4.5703125,0.05112060546875
4.57421875,0.05090771484375
4.578125,0.0508283203125
4.58203125,0.0509197265625
4.5859375,0.05115478515625
4.58984375,0.0514603515625
4.59375,0.05175517578125
4.59765625,0.0519828125
4.6015625,0.0521271484375
4.60546875,0.05220634765625
4.609375,0.052254296875
4.61328125,0.05230107421875
4.6171875,0.05235908203125
4.62109375,0.0524216796875
4.625,0.0524734375
4.62890625,0.0525025390625
4.6328125,0.05250498046875
4.63671875,0.05248125
4.640625,0.05242734375
4.64453125,0.052334375
4.6484375,0.05219638671875
4.65234375,0.05202138671875
4.65625,0.05183447265625
4.66015625,0.05167060546875
4.6640625,0.051560546875
4.66796875,0.05151728515625
4.671875,0.0515306640625
4.67578125,0.0515755859375
4.6796875,0.0516259765625
4.68359375,0.051670703125
4.6875,0.05171640625
4.69140625,0.051779296875
4.6953125,0.05187119140625
4.69921875,0.05198916015625
4.703125,0.05211650390625
4.70703125,0.05223037109375
4.7109375,0.05231142578125
4.71484375,0.0523466796875
4.71875,0.052329296875
4.72265625,0.0522556640625
4.7265625,0.0521259765625
4.73046875,0.05194599609375
4.734375,0.051729296875
4.73828125,0.05149384765625
4.7421875,0.051255859375
4.74609375,0.05102578125
4.75,0.05081181640625
4.75390625,0.0506283203125
4.7578125,0.0504994140625
4.76171875,0.050452734375
4.765625,0.05050322265625
4.76953125,0.0506396484375
4.7734375,0.05082578125
4.77734375,0.05101328125
4.78125,0.05116337890625
4.78515625,0.0512634765625
4.7890625,0.05133095703125
4.79296875,0.05139912109375
4.796875,0.05149697265625
4.80078125,0.05163056640625
4.8046875,0.05177666015625
4.80859375,0.0518912109375
4.8125,0.05193046875
4.81640625,0.05187421875
4.8203125,0.05173623046875
4.82421875,0.0515623046875
4.828125,0.05141083984375
4.83203125,0.05132734375
4.8359375,0.051324609375
4.83984375,0.05137822265625
4.84375,0.05144052734375
4.84765625,0.0514623046875
4.8515625,0.05141474609375
4.85546875,0.05129951171875
4.859375,0.05114716796875
4.86328125,0.05100361328125
4.8671875,0.05091298828125
4.87109375,0.0509029296875
4.875,0.05098037109375
4.87890625,0.05113203125
4.8828125,0.051328125
4.88671875,0.05152548828125
4.890625,0.05167392578125
4.89453125,0.05173017578125
4.8984375,0.051671875
4.90234375,0.0515078125
4.90625,0.05127802734375
4.91015625,0.05104169921875
4.9140625,0.05085595703125
4.91796875,0.05075673828125
4.921875,0.05074609375
4.92578125,0.0507955078125
4.9296875,0.05085947265625
4.93359375,0.0508970703125
4.9375,0.05088935546875
4.94140625,0.05085068359375
4.9453125,0.05082197265625
4.94921875,0.0508517578125
4.953125,0.05097021484375
4.95703125,0.05117001953125
4.9609375,0.05140419921875
4.96484375,0.05160439453125
4.96875,0.0517091796875
4.97265625,0.05169248046875
4.9765625,0.05157265625
4.98046875,0.051400390625
4.984375,0.0512341796875
4.98828125,0.05111416015625
4.9921875,0.051048828125
4.99609375,0.0510189453125
5,0.0509927734375
5.00390625,0.05094658203125
5.0078125,0.0508798828125
5.01171875,0.05081904296875
5.015625,0.05080341796875
5.01953125,0.05086337890625
5.0234375,0.0509982421875
5.02734375,0.05116962890625
5.03125,0.051314453125
5.03515625,0.05137421875
5.0390625,0.05132626953125
5.04296875,0.05119697265625
5.046875,0.05104755859375
5.05078125,0.05093798828125
5.0546875,0.05089267578125
5.05859375,0.05088896484375
5.0625,0.05087841796875
5.06640625,0.05082138671875
5.0703125,0.05071650390625
5.07421875,0.05060263671875
5.078125,0.05053330078125
5.08203125,0.0505404296875
5.0859375,0.05061142578125
5.08984375,0.05069794921875
5.09375,0.0507455078125
5.09765625,0.05072685546875
5.1015625,0.050655859375
5.10546875,0.05057783203125
5.109375,0.050544140625
5.11328125,0.0505890625
5.1171875,0.05071884765625
5.12109375,0.05091650390625
5.125,0.0511521484375
5.12890625,0.05139189453125
5.1328125,0.051599609375
5.13671875,0.0517396484375
5.140625,0.05178837890625
5.14453125,0.05174560546875
5.1484375,0.05164091796875
5.15234375,0.05152314453125
5.15625,0.05143974609375
5.16015625,0.0514154296875
5.1640625,0.05144326171875
5.16796875,0.05149453125
5.171875,0.05153740234375
5.17578125,0.0515541015625
5.1796875,0.05154609375
5.18359375,0.05153134765625
5.1875,0.051536328125
5.19140625,0.0515857421875
5.1953125,0.05169296875
5.19921875,0.0518546875
5.203125,0.05205146484375
5.20703125,0.0522548828125
5.2109375,0.05243955078125
5.21484375,0.05259150390625
5.21875,0.05270771484375
5.22265625,0.0527890625
5.2265625,0.052830078125
5.23046875,0.05281533203125
5.234375,0.05272392578125
5.23828125,0.05254091796875
5.2421875,0.05226796875
5.24609375,0.05193154296875
5.25,0.0515798828125
5.25390625,0.0512708984375
5.2578125,0.05104990234375
5.26171875,0.05093310546875
5.265625,0.0509013671875
5.26953125,0.05091201171875
5.2734375,0.0509234375
5.27734375,0.050917578125
5.28125,0.0509078125
5.28515625,0.05092392578125
5.2890625,0.05098544921875
5.29296875,0.0510810546875
5.296875,0.05116806640625
5.30078125,0.051195703125
5.3046875,0.0511345703125
5.30859375,0.05099453125
5.3125,0.0508224609375
5.31640625,0.05068515625
5.3203125,0.05064521484375
5.32421875,0.05073759765625
5.328125,0.05094248046875
5.33203125,0.05116953125
5.3359375,0.0512662109375
5.33984375,0.05105654296875
5.34375,0.0503951171875
5.34765625,0.04920810546875
5.3515625,0.0475033203125
5.35546875,0.04534375
5.359375,0.04280498046875
5.36328125,0.03993779296875
5.3671875,0.036757421875
5.37109375,0.03326650390625
5.375,0.02949111328125
5.37890625,0.025510546875
5.3828125,0.02146142578125
5.38671875,0.0175212890625
5.390625,0.01388203125
5.39453125,0.01071904296875
5.3984375,0.00816298828125
5.40234375,0.00627529296875
5.40625,0.0050369140625
5.41015625,0.004355859375
5.4140625,0.0040890625
5.41796875,0.0040685546875
5.421875,0.00413232421875
5.42578125,0.00415185546875
5.4296875,0.0040576171875
5.43359375,0.00384580078125
5.4375,0.00356513671875
5.44140625,0.00328359375
5.4453125,0.00305224609375
5.44921875,0.00288681640625
5.453125,0.0027744140625
5.45703125,0.0026974609375
5.4609375,0.0026580078125
5.46484375,0.00268310546875
5.46875,0.002805859375
5.47265625,0.003037109375
5.4765625,0.00334462890625
5.48046875,0.00365625
5.484375,0.0038833984375
5.48828125,0.00395576171875
5.4921875,0.0038498046875
5.49609375,0.00359619140625
5.5,0.0032703125
5.50390625,0.0029609375
5.5078125,0.00273662109375
5.51171875,0.00262236328125
5.515625,0.00259404296875
5.51953125,0.0025958984375
5.5234375,0.00256748046875
5.52734375,0.00247021484375
5.53125,0.00230205078125
5.53515625,0.00209375
5.5390625,0.0018923828125
5.54296875,0.00173857421875
5.546875,0.00165234375
5.55078125,0.00162880859375
5.5546875,0.001650390625
5.55859375,0.00169970703125
5.5625,0.0017716796875
5.56640625,0.00187568359375
5.5703125,0.00203046875
5.57421875,0.0022515625
5.578125,0.0025376953125
5.58203125,0.00286435546875
5.5859375,0.0031880859375
5.58984375,0.00345693359375
5.59375,0.0036212890625
5.59765625,0.0036447265625
5.6015625,0.003508203125
5.60546875,0.00321513671875
5.609375,0.002791796875
5.61328125,0.0022849609375
5.6171875,0.00175498046875
5.62109375,0.00126181640625
5.625,0.00085
5.62890625,0.00053994140625
5.6328125,0.00032880859375
5.63671875,0.00020234375
5.640625,0.00014853515625
5.64453125,0.0001658203125
5.6484375,0.000256640625
5.65234375,0.00041474609375
5.65625,0.00061328125
5.66015625,0.00080830078125
5.6640625,0.0009521484375
5.66796875,0.001012890625
5.671875,0.00098544921875
5.67578125,0.00089140625
5.6796875,0.0007673828125
5.68359375,0.00064794921875
5.6875,0.0005509765625
5.69140625,0.00047265625
5.6953125,0.00039189453125
5.69921875,0.00028818359375
5.703125,0.000158203125
5.70703125,0.0000244140625
5.7109375,-0.00007275390625
5.71484375,-0.000096484375
5.71875,-0.0000400390625
5.72265625,0.00006337890625
5.7265625,0.0001513671875
5.73046875,0.000163671875
5.734375,0.0000740234375
5.73828125,-0.00009404296875
5.7421875,-0.0002765625
5.74609375,-0.00039716796875
5.75,-0.000403125
5.75390625,-0.00028984375
5.7578125,-0.00010576171875
5.76171875,0.0000712890625
5.765625,0.00016982421875
5.76953125,0.00015927734375
5.7734375,0.00006005859375
5.77734375,-0.0000716796875
5.78125,-0.0001767578125
5.78515625,-0.000223828125
5.7890625,-0.0002232421875
5.79296875,-0.00021572265625
5.796875,-0.00024521484375
5.80078125,-0.0003330078125
5.8046875,-0.00046875
5.80859375,-0.0006216796875
5.8125,-0.0007599609375
5.81640625,-0.00086396484375
5.8203125,-0.00092890625
5.82421875,-0.000959375
5.828125,-0.00096298828125
5.83203125,-0.00094677734375
5.8359375,-0.00091611328125
5.83984375,-0.00087412109375
5.84375,-0.00082255859375
5.84765625,-0.00076142578125
5.8515625,-0.000693359375
5.85546875,-0.00062724609375
5.859375,-0.0005779296875
5.86328125,-0.00056318359375
5.8671875,-0.00059580078125
5.87109375,-0.000676953125
5.875,-0.00079365234375
5.87890625,-0.0009203125
5.8828125,-0.00102666015625
5.88671875,-0.00108740234375
5.890625,-0.0010947265625
5.89453125,-0.00106162109375
5.8984375,-0.0010158203125
5.90234375,-0.000984375
5.90625,-0.0009771484375
5.91015625,-0.0009814453125
5.9140625,-0.0009705078125
5.91796875,-0.00091962890625
5.921875,-0.0008203125
5.92578125,-0.0006853515625
5.9296875,-0.00053984375
5.93359375,-0.000408984375
5.9375,-0.00030810546875
5.94140625,-0.0002384765625
5.9453125,-0.000191796875
5.94921875,-0.00015498046875
5.953125,-0.0001150390625
5.95703125,-0.000065625
5.9609375,-0.000012109375
5.96484375,0.00002705078125
5.96875,0.0000296875
5.97265625,-0.00001669921875
5.9765625,-0.00010556640625
5.98046875,-0.00021474609375
5.984375,-0.00031669921875
5.98828125,-0.00039130859375
5.9921875,-0.0004333984375
5.99609375,-0.00045
6,-0.00045263671875
6.00390625,-0.00045087890625
6.0078125,-0.00044912109375
6.01171875,-0.00044794921875
6.015625,-0.00044609375
6.01953125,-0.0004400390625
6.0234375,-0.00042333984375
6.02734375,-0.00038935546875
6.03125,-0.00033271484375
6.03515625,-0.00025556640625
6.0390625,-0.0001693359375
6.04296875,-0.00009765625
6.046875,-0.0000736328125
6.05078125,-0.00013154296875
6.0546875,-0.00029013671875
6.05859375,-0.00053515625
6.0625,-0.00081552734375
6.06640625,-0.0010580078125
6.0703125,-0.00119736328125
6.07421875,-0.0012041015625
6.078125,-0.00109267578125
6.08203125,-0.000909375
6.0859375,-0.0007080078125
6.08984375,-0.000528515625
6.09375,-0.00038896484375
6.09765625,-0.000290234375
6.1015625,-0.0002259765625
6.10546875,-0.000188671875
6.109375,-0.0001701171875
6.11328125,-0.0001619140625
6.1171875,-0.00015576171875
6.12109375,-0.00014677734375
6.125,-0.000136328125
6.12890625,-0.0001287109375
6.1328125,-0.00012841796875
6.13671875,-0.00013701171875
6.140625,-0.00015595703125
6.14453125,-0.00018701171875
6.1484375,-0.0002298828125
6.15234375,-0.0002744140625
6.15625,-0.0003005859375
6.16015625,-0.00028671875
6.1640625,-0.00022646484375
6.16796875,-0.00013779296875
6.171875,-0.0000615234375
6.17578125,-0.0000453125
6.1796875,-0.0001203125
6.18359375,-0.00028271484375
6.1875,-0.00049296875
6.19140625,-0.00069072265625
6.1953125,-0.00081982421875
6.19921875,-0.00084794921875
6.203125,-0.00077568359375
6.20703125,-0.00063212890625
6.2109375,-0.00046298828125
6.21484375,-0.00031435546875
6.21875,-0.0002208984375
6.22265625,-0.00020146484375
6.2265625,-0.000256640625
6.23046875,-0.0003677734375
6.234375,-0.000500390625
6.23828125,-0.00061259765625
6.2421875,-0.0006666015625
6.24609375,-0.000639453125
6.25,-0.00052978515625
6.25390625,-0.0003580078125
6.2578125,-0.00016259765625
6.26171875,0.00000947265625
6.265625,0.000116015625
6.26953125,0.000133984375
6.2734375,0.000067578125
6.27734375,-0.0000517578125
6.28125,-0.00017744140625
6.28515625,-0.00026533203125
6.2890625,-0.00028955078125
6.29296875,-0.00024853515625
6.296875,-0.00016240234375
6.30078125,-0.0000607421875
6.3046875,0.00002685546875
6.30859375,0.000080859375
6.3125,0.00009501953125
6.31640625,0.00007568359375
6.3203125,0.00003642578125
6.32421875,-0.00000869140625
6.328125,-0.00005126953125
6.33203125,-0.000091015625
6.3359375,-0.00013251953125
6.33984375,-0.0001767578125
6.34375,-0.0002169921875
6.34765625,-0.00023837890625
6.3515625,-0.00022314453125
6.35546875,-0.00015302734375
6.359375,-0.0000091796875
6.36328125,0.000233203125
6.3671875,0.00060712890625
6.37109375,0.00114609375
6.375,0.001865625
6.37890625,0.00273798828125
6.3828125,0.003680078125
6.38671875,0.00456552734375
6.390625,0.0052599609375
6.39453125,0.0056681640625
6.3984375,0.00577255859375
6.40234375,0.005651171875
6.40625,0.00545556640625
6.41015625,0.00535380859375
6.4140625,0.00545634765625
6.41796875,0.00576357421875
6.421875,0.00616728515625
6.42578125,0.006509375
6.4296875,0.00666669921875
6.43359375,0.0066126953125
6.4375,0.006421875
6.44140625,0.00621669921875
6.4453125,0.0060912109375
6.44921875,0.0060583984375
6.453125,0.00604951171875
6.45703125,0.00596240234375
6.4609375,0.00572333984375
6.46484375,0.0053244140625
6.46875,0.00482490234375
6.47265625,0.00431845703125
6.4765625,0.00388916015625
6.48046875,0.00357802734375
6.484375,0.003371875
6.48828125,0.00321865234375
6.4921875,0.003062890625
6.49609375,0.002880078125
6.5,0.0026931640625
6.50390625,0.00255478515625
6.5078125,0.00250791015625
6.51171875,0.00255048828125
6.515625,0.0026302734375
6.51953125,0.0026775390625
6.5234375,0.00265146484375
6.52734375,0.00256728515625
6.53125,0.00248076171875
6.53515625,0.00244482421875
6.5390625,0.0024708984375
6.54296875,0.00251787109375
6.546875,0.002517578125
6.55078125,0.0024158203125
6.5546875,0.0022056640625
6.55859375,0.00193359375
6.5625,0.0016744140625
6.56640625,0.0014955078125
6.5703125,0.00142578125
6.57421875,0.00145078125
6.578125,0.00152333984375
6.58203125,0.00158740234375
6.5859375,0.00159716796875
6.58984375,0.0015306640625
6.59375,0.00139306640625
6.59765625,0.0012138671875
6.6015625,0.00103603515625
6.60546875,0.0009009765625
6.609375,0.0008341796875
6.61328125,0.00083740234375
6.6171875,0.0008919921875
6.62109375,0.00096904296875
6.625,0.00103994140625
6.62890625,0.00108408203125
6.6328125,0.00109072265625
6.63671875,0.0010564453125
6.640625,0.000985546875
6.64453125,0.00089150390625
6.6484375,0.0007958984375
6.65234375,0.00072197265625
6.65625,0.00068310546875
6.66015625,0.000675
6.6640625,0.00067529296875
6.66796875,0.00065439453125
6.671875,0.00059208984375
6.67578125,0.00049091796875
6.6796875,0.0003798828125
6.68359375,0.000303515625
6.6875,0.00030244140625
6.69140625,0.0003927734375
6.6953125,0.00055166015625
6.69921875,0.0007189453125
6.703125,0.000816796875
6.70703125,0.00078525390625
6.7109375,0.0006142578125
6.71484375,0.0003548828125
6.71875,0.00010009765625
6.72265625,-0.00005791015625
6.7265625,-0.00006806640625
6.73046875,0.00006064453125
6.734375,0.0002728515625
6.73828125,0.0004974609375
6.7421875,0.00067939453125
6.74609375,0.00079658203125
6.75,0.00085791015625
6.75390625,0.00088759765625
6.7578125,0.000906640625
6.76171875,0.00092548828125
6.765625,0.0009490234375
6.76953125,0.00098544921875
6.7734375,0.00104970703125
6.77734375,0.00115458984375
6.78125,0.00129580078125
6.78515625,0.0014435546875
6.7890625,0.0015451171875
6.79296875,0.00154677734375
6.796875,0.0014234375
6.80078125,0.00119833984375
6.8046875,0.00093916015625
6.80859375,0.00072802734375
6.8125,0.00061953125
6.81640625,0.0006142578125
6.8203125,0.0006591796875
6.82421875,0.00068017578125
6.828125,0.0006255859375
6.83203125,0.000494140625
6.8359375,0.0003310546875
6.83984375,0.00019580078125
6.84375,0.0001259765625
6.84765625,0.0001201171875
6.8515625,0.00014794921875
6.85546875,0.000174609375
6.859375,0.00018330078125
6.86328125,0.00018466796875
6.8671875,0.000206640625
6.87109375,0.0002744140625
6.875,0.0003912109375
6.87890625,0.0005294921875
6.8828125,0.0006375
6.88671875,0.00065703125
6.890625,0.0005501953125
6.89453125,0.00032001953125
6.8984375,0.0000205078125
6.90234375,-0.000259375
6.90625,-0.00042412109375
6.91015625,-0.00040654296875
6.9140625,-0.000194921875
6.91796875,0.00016181640625
6.921875,0.00056904296875
6.92578125,0.0009201171875
6.9296875,0.00113310546875
6.93359375,0.001178125
6.9375,0.00108408203125
6.94140625,0.00092451171875
6.9453125,0.00078759765625
6.94921875,0.00074326171875
6.953125,0.000820703125
6.95703125,0.00100390625
6.9609375,0.001245703125
6.96484375,0.00148935546875
6.96875,0.00168720703125
6.97265625,0.001809765625
6.9765625,0.00184716796875
6.98046875,0.00180419921875
6.984375,0.00169619140625
6.98828125,0.0015435546875
6.9921875,0.0013669921875
6.99609375,0.00118349609375
7,0.00100615234375
7.00390625,0.000844921875
7.0078125,0.00070810546875
7.01171875,0.000602734375
7.015625,0.000533203125
7.01953125,0.000500390625
7.0234375,0.0005005859375
7.02734375,0.0005248046875
7.03125,0.00056201171875
7.03515625,0.0006068359375
7.0390625,0.00066591796875
7.04296875,0.00075771484375
7.046875,0.00090029296875
7.05078125,0.00109375
7.0546875,0.0013064453125
7.05859375,0.0014798828125
7.0625,0.00155205078125
7.06640625,0.001490625
7.0703125,0.0013158203125
7.07421875,0.0011013671875
7.078125,0.00094619140625
7.08203125,0.00093291015625
7.0859375,0.00109033203125
7.08984375,0.00137783203125
7.09375,0.00170205078125
7.09765625,0.00195791015625
7.1015625,0.00207099609375
7.10546875,0.002020703125
7.109375,0.00183505859375
7.11328125,0.00156806640625
7.1171875,0.00127841796875
7.12109375,0.00101689453125
7.125,0.00082265625
7.12890625,0.0007205078125
7.1328125,0.00071220703125
7.13671875,0.00077158203125
7.140625,0.0008505859375
7.14453125,0.0008982421875
7.1484375,0.00088427734375
7.15234375,0.000812109375
7.15625,0.00071123046875
7.16015625,0.00061630859375
7.1640625,0.00054697265625
7.16796875,0.00050390625
7.171875,0.00047880859375
7.17578125,0.0004701171875
7.1796875,0.0004861328125
7.18359375,0.00053525390625
7.1875,0.00061142578125
7.19140625,0.0006904296875
7.1953125,0.00074091796875
7.19921875,0.00074111328125
7.203125,0.0006927734375
7.20703125,0.0006193359375
7.2109375,0.00055126953125
7.21484375,0.0005087890625
7.21875,0.0004916015625
7.22265625,0.0004830078125
7.2265625,0.0004658203125
7.23046875,0.00043505859375
7.234375,0.00040400390625
7.23828125,0.00039775390625
7.2421875,0.0004384765625
7.24609375,0.00053076171875
7.25,0.00065732421875
7.25390625,0.0007869140625
7.2578125,0.00089150390625
7.26171875,0.000959375
7.265625,0.0010005859375
7.26953125,0.0010396484375
7.2734375,0.0011013671875
7.27734375,0.00119287109375
7.28125,0.00129462890625
7.28515625,0.0013671875
7.2890625,0.00137265625
7.29296875,0.00129775390625
7.296875,0.00116162109375
7.30078125,0.0010015625
7.3046875,0.00084931640625
7.30859375,0.00071494140625
7.3125,0.0005908203125
7.31640625,0.0004693359375
7.3203125,0.00036142578125
7.32421875,0.0002953125
7.328125,0.00030234375
7.33203125,0.00039423828125
7.3359375,0.00055322265625
7.33984375,0.0007359375
7.34375,0.00088955078125
7.34765625,0.00097001953125
7.3515625,0.00095302734375
7.35546875,0.0008388671875
7.359375,0.00065146484375
7.36328125,0.000433984375
7.3671875,0.00024404296875
7.37109375,0.00013740234375
7.375,0.00014833984375
7.37890625,0.00027197265625
7.3828125,0.00046494140625
7.38671875,0.0006666015625
7.390625,0.0008259765625
7.39453125,0.00091953125
7.3984375,0.0009509765625
7.40234375,0.00093876953125
7.40625,0.0009017578125
7.41015625,0.00085185546875
7.4140625,0.000794140625
7.41796875,0.00073212890625
7.421875,0.0006732421875
7.42578125,0.00062705078125
7.4296875,0.0006001953125
7.43359375,0.0005931640625
7.4375,0.00060107421875
7.44140625,0.00061943359375
7.4453125,0.00064697265625
7.44921875,0.0006830078125
7.453125,0.00072236328125
7.45703125,0.000758984375
7.4609375,0.00079404296875
7.46484375,0.00083984375
7.46875,0.00091015625
7.47265625,0.00100615234375
7.4765625,0.00110966796875
7.48046875,0.0011888671875
7.484375,0.00121552734375
7.48828125,0.00118271484375
7.4921875,0.001112109375
7.49609375,0.001046875
7.5,0.00103095703125
7.50390625,0.0010890625
7.5078125,0.0012162109375
7.51171875,0.00138203125
7.515625,0.00154296875
7.51953125,0.00165712890625
7.5234375,0.00169619140625
7.52734375,0.00165166015625
7.53125,0.0015376953125
7.53515625,0.00138681640625
7.5390625,0.00123916015625
7.54296875,0.00113251953125
7.546875,0.00109208984375
7.55078125,0.0011275390625
7.5546875,0.00123369140625
7.55859375,0.001392578125
7.5625,0.00157265625
7.56640625,0.00173056640625
7.5703125,0.00181708984375
7.57421875,0.00179453125
7.578125,0.00165400390625
7.58203125,0.00142861328125
7.5859375,0.00118896484375
7.58984375,0.00101806640625
7.59375,0.0009759765625
7.59765625,0.00107041015625
7.6015625,0.0012486328125
7.60546875,0.0014189453125
7.609375,0.00149287109375
7.61328125,0.00142783203125
7.6171875,0.00124658203125
7.62109375,0.0010234375
7.625,0.000846484375
7.62890625,0.0007751953125
7.6328125,0.0008171875
7.63671875,0.0009302734375
7.640625,0.0010498046875
7.64453125,0.00112392578125
7.6484375,0.001137109375
7.65234375,0.00111279296875
7.65625,0.00109365234375
7.66015625,0.00111064453125
7.6640625,0.00116171875
7.66796875,0.00121416015625
7.671875,0.00122705078125
7.67578125,0.0011802734375
7.6796875,0.00108779296875
7.68359375,0.00099130859375
7.6875,0.00093681640625
7.69140625,0.0009515625
7.6953125,0.0010326171875
7.69921875,0.00115283203125
7.703125,0.00127666015625
7.70703125,0.00137822265625
7.7109375,0.00144580078125
7.71484375,0.0014779296875
7.71875,0.0014724609375
7.72265625,0.00142275390625
7.7265625,0.00131865234375
7.73046875,0.001153515625
7.734375,0.00093095703125
7.73828125,0.0006701171875
7.7421875,0.0004087890625
7.74609375,0.00019580078125
7.75,0.0000767578125
7.75390625,0.000075390625
7.7578125,0.00018369140625
7.76171875,0.0003646484375
7.765625,0.0005689453125
7.76953125,0.000754296875
7.7734375,0.00089931640625
7.77734375,0.001003515625
7.78125,0.00107939453125
7.78515625,0.0011388671875
7.7890625,0.00118505859375
7.79296875,0.00121015625
7.796875,0.00120126953125
7.80078125,0.00115087890625
7.8046875,0.00106640625
7.80859375,0.0009728515625
7.8125,0.00090751953125
7.81640625,0.00090380859375
7.8203125,0.00097529296875
7.82421875,0.0011048828125
7.828125,0.001250390625
7.83203125,0.00136220703125
7.8359375,0.00140537109375
7.83984375,0.0013744140625
7.84375,0.0012939453125
7.84765625,0.00120419921875
7.8515625,0.001140234375
7.85546875,0.00111689453125
7.859375,0.00112490234375
7.86328125,0.00114013671875
7.8671875,0.00113857421875
7.87109375,0.0011095703125
7.875,0.00106025390625
7.87890625,0.001011328125
7.8828125,0.00098701171875
7.88671875,0.00100322265625
7.890625,0.00106005859375
7.89453125,0.00114150390625
7.8984375,0.0012208984375
7.90234375,0.00126865234375
7.90625,0.0012626953125
7.91015625,0.00119765625
7.9140625,0.00109189453125
7.91796875,0.0009857421875
7.921875,0.00093017578125
7.92578125,0.0009658203125
7.9296875,0.0011015625
7.93359375,0.00130419921875
7.9375,0.00150703125
7.94140625,0.00163642578125
7.9453125,0.00164326171875
7.94921875,0.00152109375
7.953125,0.00130634765625
7.95703125,0.00106064453125
7.9609375,0.00084189453125
7.96484375,0.00068095703125
7.96875,0.000573828125
7.97265625,0.000491015625
7.9765625,0.0004
7.98046875,0.00028310546875
7.984375,0.00014716796875
7.98828125,0.000017578125
7.9921875,-0.00007421875
7.99609375,-0.0001046875
8,-0.0000666015625
8.00390625,0.00002978515625
8.0078125,0.000161328125
8.01171875,0.0003009765625
8.015625,0.00042314453125
8.01953125,0.0005107421875
8.0234375,0.00055888671875
8.02734375,0.00057578125
8.03125,0.000576953125
8.03515625,0.00057646484375
8.0390625,0.00058310546875
8.04296875,0.000603125
8.046875,0.0006439453125
8.05078125,0.00071357421875
8.0546875,0.00081298828125
8.05859375,0.0009298828125
8.0625,0.0010375
8.06640625,0.0011013671875
8.0703125,0.0010962890625
8.07421875,0.00102216796875
8.078125,0.00090771484375
8.08203125,0.00079794921875
8.0859375,0.0007310546875
8.08984375,0.0007177734375
8.09375,0.000737890625
8.09765625,0.00075341796875
8.1015625,0.00072783203125
8.10546875,0.00064638671875
8.109375,0.00052470703125
8.11328125,0.000405078125
8.1171875,0.00033876953125
8.12109375,0.0003625
8.125,0.00047861328125
8.12890625,0.00065283203125
8.1328125,0.00082685546875
8.13671875,0.000940625
8.140625,0.00095751953125
8.14453125,0.00087958984375
8.1484375,0.00074853515625
8.15234375,0.0006298828125
8.15625,0.00058525390625
8.16015625,0.0006453125
8.1640625,0.0007953125
8.16796875,0.00098115234375
8.171875,0.0011291015625
8.17578125,0.00117802734375
8.1796875,0.00110615234375
8.18359375,0.0009419921875
8.1875,0.00075185546875
8.19140625,0.0006123046875
8.1953125,0.000575390625
8.19921875,0.00064853515625
8.203125,0.0007943359375
8.20703125,0.00094931640625
8.2109375,0.00105185546875
8.21484375,0.00106611328125
8.21875,0.00099248046875
8.22265625,0.000865234375
8.2265625,0.00073544921875
8.23046875,0.0006525390625
8.234375,0.000647265625
8.23828125,0.00072236328125
8.2421875,0.0008521484375
8.24609375,0.00098955078125
8.25,0.0010833984375
8.25390625,0.00109658203125
8.2578125,0.00102041015625
8.26171875,0.000876171875
8.265625,0.0007060546875
8.26953125,0.000559765625
8.2734375,0.000478125
8.27734375,0.00047919921875
8.28125,0.00055283203125
8.28515625,0.00066279296875
8.2890625,0.00076064453125
8.29296875,0.00081484375
8.296875,0.000846875
8.30078125,0.0009615234375
8.3046875,0.00134560546875
8.30859375,0.00222578125
8.3125,0.00379814453125
8.31640625,0.00615986328125
8.3203125,0.0092720703125
8.32421875,0.0129669921875
8.328125,0.0169970703125
8.33203125,0.0210951171875
8.3359375,0.02502626953125
8.33984375,0.028611328125
8.34375,0.03172265625
8.34765625,0.03427119140625
8.3515625,0.0361994140625
8.35546875,0.0374921875
8.359375,0.0381923828125
8.36328125,0.0384095703125
8.3671875,0.03830986328125
8.37109375,0.03808564453125
8.375,0.03790791015625
8.37890625,0.03788095703125
8.3828125,0.0380197265625
8.38671875,0.038262109375
8.390625,0.03850751953125
8.39453125,0.03866513671875
8.3984375,0.03868525390625
8.40234375,0.038569921875
8.40625,0.03835908203125
8.41015625,0.0381072265625
8.4140625,0.037859375
8.41796875,0.03764091796875
8.421875,0.03746181640625
8.42578125,0.0373296875
8.4296875,0.03726083984375
8.43359375,0.0372759765625
8.4375,0.03738486328125
8.44140625,0.0375724609375
8.4453125,0.037797265625
8.44921875,0.0380064453125
8.453125,0.0381552734375
8.45703125,0.03822353515625
8.4609375,0.038216015625
8.46484375,0.03815361328125
8.46875,0.0380587890625
8.47265625,0.0379470703125
8.4765625,0.0378283203125
8.48046875,0.03771259765625
8.484375,0.037612890625
8.48828125,0.03754453125
8.4921875,0.03751826171875
8.49609375,0.03753505859375
8.5,0.03758623046875
8.50390625,0.03766005859375
8.5078125,0.03775107421875
8.51171875,0.03786650390625
8.515625,0.03802265625
8.51953125,0.038234765625
8.5234375,0.03850126953125
8.52734375,0.03879560546875
8.53125,0.03906787109375
8.53515625,0.03926298828125
8.5390625,0.03934150390625
8.54296875,0.039293359375
8.546875,0.03913798828125
8.55078125,0.03891259765625
8.5546875,0.03865771484375
8.55859375,0.03840888671875
8.5625,0.03819560546875
8.56640625,0.03804267578125
8.5703125,0.03796806640625
8.57421875,0.037976953125
8.578125,0.03805771484375
8.58203125,0.03818173828125
8.5859375,0.03831083984375
8.58984375,0.0384078125
8.59375,0.0384478515625
8.59765625,0.03842421875
8.6015625,0.03834931640625
8.60546875,0.0382478515625
8.609375,0.0381478515625
8.61328125,0.0380716796875
8.6171875,0.03803173828125
8.62109375,0.03802998046875
8.625,0.0380623046875
8.62890625,0.0381201171875
8.6328125,0.0381919921875
8.63671875,0.0382650390625
8.640625,0.0383279296875
8.64453125,0.03837177734375
8.6484375,0.03839306640625
8.65234375,0.0383931640625
8.65625,0.0383765625
8.66015625,0.03834892578125
8.6640625,0.03831416015625
8.66796875,0.03827841796875
8.671875,0.03825361328125
8.67578125,0.038259375
8.6796875,0.03831806640625
8.68359375,0.03844453125
8.6875,0.038633203125
8.69140625,0.038851953125
8.6953125,0.0390498046875
8.69921875,0.03917421875
8.703125,0.03919638671875
8.70703125,0.03912763671875
8.7109375,0.03901943359375
8.71484375,0.03894267578125
8.71875,0.0389529296875
8.72265625,0.03906103515625
8.7265625,0.03922890625
8.73046875,0.0393890625
8.734375,0.03947734375
8.73828125,0.03946083984375
8.7421875,0.03934833984375
8.74609375,0.0391833984375
8.75,0.03902236328125
8.75390625,0.0389125
8.7578125,0.03887626953125
8.76171875,0.03891015625
8.765625,0.03898798828125
8.76953125,0.039068359375
8.7734375,0.03910556640625
8.77734375,0.0390638671875
8.78125,0.0389333984375
8.78515625,0.03873798828125
8.7890625,0.0385279296875
8.79296875,0.0383642578125
8.796875,0.0382958984375
8.80078125,0.03834404296875
8.8046875,0.03849423828125
8.80859375,0.03870517578125
8.8125,0.0389263671875
8.81640625,0.03911611328125
8.8203125,0.03924990234375
8.82421875,0.03931943359375
8.828125,0.0393294921875
8.83203125,0.03929365234375
8.8359375,0.0392322265625
8.83984375,0.0391671875
8.84375,0.03911484375
8.84765625,0.039076953125
8.8515625,0.03903623046875
8.85546875,0.03896015625
8.859375,0.03881796875
8.86328125,0.03859873046875
8.8671875,0.03832412109375
8.87109375,0.038043359375
8.875,0.037813671875
8.87890625,0.0376767578125
8.8828125,0.03764013671875
8.88671875,0.03767880859375
8.890625,0.037753125
8.89453125,0.03783193359375
8.8984375,0.037905859375
8.90234375,0.0379841796875
8.90625,0.03808427734375
8.91015625,0.038218359375
8.9140625,0.0383880859375
8.91796875,0.0385865234375
8.921875,0.03880029296875
8.92578125,0.03901162109375
8.9296875,0.03919765625
8.93359375,0.039332421875
8.9375,0.03939326171875
8.94140625,0.039369921875
8.9453125,0.03927109375
8.94921875,0.03911904296875
8.953125,0.0389361328125
8.95703125,0.03873271484375
8.9609375,0.0385056640625
8.96484375,0.0382505859375
8.96875,0.03797470703125
8.97265625,0.03770625
8.9765625,0.03748701171875
8.98046875,0.03735537109375
8.984375,0.037327734375
8.98828125,0.0373892578125
8.9921875,0.03750126953125
8.99609375,0.03761875
9,0.037711328125
9.00390625,0.0377779296875
9.0078125,0.03784697265625
9.01171875,0.03796484375
9.015625,0.03817724609375
9.01953125,0.038508984375
9.0234375,0.03894814453125
9.02734375,0.0394384765625
9.03125,0.0398896484375
9.03515625,0.04020234375
9.0390625,0.0403013671875
9.04296875,0.040166796875
9.046875,0.03984228515625
9.05078125,0.039421875
9.0546875,0.039014453125
9.05859375,0.0387046875
9.0625,0.0385263671875
9.06640625,0.03845927734375
9.0703125,0.0384451171875
9.07421875,0.03841357421875
9.078125,0.0383087890625
9.08203125,0.03811044921875
9.0859375,0.0378451171875
9.08984375,0.03757978515625
9.09375,0.03739853515625
9.09765625,0.03736650390625
9.1015625,0.03749931640625
9.10546875,0.03775185546875
9.109375,0.03803994140625
9.11328125,0.03827978515625
9.1171875,0.038426953125
9.12109375,0.038490625
9.125,0.03852236328125
9.12890625,0.03858193359375
9.1328125,0.0387052734375
9.13671875,0.03888779296875
9.140625,0.0390900390625
9.14453125,0.0392591796875
9.1484375,0.03935029296875
9.15234375,0.0393404296875
9.15625,0.03923505859375
9.16015625,0.0390638671875
9.1640625,0.03886884765625
9.16796875,0.03868671875
9.171875,0.0385337890625
9.17578125,0.0384041015625
9.1796875,0.038280078125
9.18359375,0.0381458984375
9.1875,0.0379984375
9.19140625,0.03784833984375
9.1953125,0.037716015625
9.19921875,0.0376220703125
9.203125,0.03758037109375
9.20703125,0.03759423828125
9.2109375,0.03766279296875
9.21484375,0.03778408203125
9.21875,0.03795615234375
9.22265625,0.0381720703125
9.2265625,0.0384146484375
9.23046875,0.0386548828125
9.234375,0.03885478515625
9.23828125,0.03897451171875
9.2421875,0.0389849609375
9.24609375,0.0388837890625
9.25,0.038701171875
9.25390625,0.03849091796875
9.2578125,0.03830341796875
9.26171875,0.0381591796875
9.265625,0.03804365234375
9.26953125,0.0379224609375
9.2734375,0.0377716796875
9.27734375,0.03760185546875
9.28125,0.037458984375
9.28515625,0.037401171875
9.2890625,0.037464453125
9.29296875,0.0376396484375
9.296875,0.0378734375
9.30078125,0.0380919921875
9.3046875,0.03823115234375
9.30859375,0.03825947265625
9.3125,0.0381865234375
9.31640625,0.038053515625
9.3203125,0.03791533203125
9.32421875,0.0378203125
9.328125,0.03779189453125
9.33203125,0.03782041015625
9.3359375,0.037870703125
9.33984375,0.03790166015625
9.34375,0.0378876953125
9.34765625,0.03782763671875
9.3515625,0.03774150390625
9.35546875,0.037653515625
9.359375,0.03758037109375
9.36328125,0.03752158203125
9.3671875,0.0374484375
9.37109375,0.03728095703125
9.375,0.03686787109375
9.37890625,0.03600830078125
9.3828125,0.03452109375
9.38671875,0.03233056640625
9.390625,0.02951884765625
9.39453125,0.026312890625
9.3984375,0.02300859375
9.40234375,0.01986064453125
9.40625,0.01699453125
9.41015625,0.01439091796875
9.4140625,0.01194912109375
9.41796875,0.0095859375
9.421875,0.007307421875
9.42578125,0.0052177734375
9.4296875,0.003473046875
9.43359375,0.0022091796875
9.4375,0.00148115234375
9.44140625,0.00123515625
9.4453125,0.0013236328125
9.44921875,0.001558203125
9.453125,0.00177763671875
9.45703125,0.00189833984375
9.4609375,0.001922265625
9.46484375,0.00190615234375
9.46875,0.0019123046875
9.47265625,0.00197255859375
9.4765625,0.002076953125
9.48046875,0.00218505859375
9.484375,0.00224951171875
9.48828125,0.002244140625
9.4921875,0.0021771484375
9.49609375,0.0020876953125
9.5,0.00202265625
9.50390625,0.0020107421875
9.5078125,0.002047265625
9.51171875,0.0020986328125
9.515625,0.00212255859375
9.51953125,0.00209599609375
9.5234375,0.00203056640625
9.52734375,0.00196904296875
9.53125,0.00195888671875
9.53515625,0.0020189453125
9.5390625,0.00212138671875
9.54296875,0.0022
9.546875,0.00218388671875
9.55078125,0.00203876953125
9.5546875,0.001787890625
9.55859375,0.001501953125
9.5625,0.00126474609375
9.56640625,0.00112958984375
9.5703125,0.001091796875
9.57421875,0.00108427734375
9.578125,0.00100048828125
9.58203125,0.00074248046875
9.5859375,0.00027353515625
9.58984375,-0.00035068359375
9.59375,-0.0009916015625
9.59765625,-0.00148232421875
9.6015625,-0.0017029296875
9.60546875,-0.00163837890625
9.609375,-0.0013857421875
9.61328125,-0.00110771484375
9.6171875,-0.000952734375
9.62109375,-0.00099013671875
9.625,-0.001191015625
9.62890625,-0.00146162109375
9.6328125,-0.00170517578125
9.63671875,-0.001873046875
9.640625,-0.001976171875
9.64453125,-0.00205966796875
9.6484375,-0.00216279296875
9.65234375,-0.00229296875
9.65625,-0.00242509765625
9.66015625,-0.0025201171875
9.6640625,-0.00254501953125
9.66796875,-0.00248720703125
9.671875,-0.00235849609375
9.67578125,-0.0021916015625
9.6796875,-0.0020283203125
9.68359375,-0.00190673828125
9.6875,-0.00184521484375
9.69140625,-0.00183642578125
9.6953125,-0.0018498046875
9.69921875,-0.00184560546875
9.703125,-0.001790234375
9.70703125,-0.00166806640625
9.7109375,-0.00148515625
9.71484375,-0.001265625
9.71875,-0.0010462890625
9.72265625,-0.0008716796875
9.7265625,-0.00078701171875
9.73046875,-0.00082587890625
9.734375,-0.00099365234375
9.73828125,-0.0012560546875
9.7421875,-0.0015462890625
9.74609375,-0.001793359375
9.75,-0.00195283203125
9.75390625,-0.00202236328125
9.7578125,-0.00203291015625
9.76171875,-0.00202392578125
9.765625,-0.00202412109375
9.76953125,-0.0020455078125
9.7734375,-0.00209189453125
9.77734375,-0.00216650390625
9.78125,-0.002272265625
9.78515625,-0.0024048828125
9.7890625,-0.00254794921875
9.79296875,-0.002675390625
9.796875,-0.00276337890625
9.80078125,-0.00279833984375
9.8046875,-0.00277919921875
9.80859375,-0.002713671875
9.8125,-0.00261181640625
9.81640625,-0.00248408203125
9.8203125,-0.0023396484375
9.82421875,-0.0021876953125
9.828125,-0.00203740234375
9.83203125,-0.00189716796875
9.8359375,-0.0017751953125
9.83984375,-0.0016796875
9.84375,-0.0016177734375
9.84765625,-0.00159375
9.8515625,-0.00160634765625
9.85546875,-0.00164521484375
9.859375,-0.00169287109375
9.86328125,-0.0017298828125
9.8671875,-0.0017408203125
9.87109375,-0.001719140625
9.875,-0.00167041015625
9.87890625,-0.00161005859375
9.8828125,-0.00155732421875
9.88671875,-0.00152353515625
9.890625,-0.001507421875
9.89453125,-0.00149921875
9.8984375,-0.00149501953125
9.90234375,-0.00150712890625
9.90625,-0.0015607421875
9.91015625,-0.0016751953125
9.9140625,-0.00184326171875
9.91796875,-0.0020224609375
9.921875,-0.00214892578125
9.92578125,-0.0021666015625
9.9296875,-0.00206064453125
9.93359375,-0.00187138671875
9.9375,-0.0016837890625
9.94140625,-0.0015916015625
9.9453125,-0.0016576171875
9.94921875,-0.00188427734375
9.953125,-0.00221015625
9.95703125,-0.00253466796875
9.9609375,-0.00275791015625
9.96484375,-0.00282001953125
9.96875,-0.002722265625
9.97265625,-0.00252197265625
9.9765625,-0.00230615234375
9.98046875,-0.00215595703125
9.984375,-0.00211865234375
9.98828125,-0.0021953125
9.9921875,-0.00234833984375
9.99609375,-0.00252294921875
10,-0.00266845703125
10.00390625,-0.0027572265625
10.0078125,-0.00279189453125
10.01171875,-0.00279755859375
10.015625,-0.0028056640625
10.01953125,-0.0028314453125
10.0234375,-0.00286337890625
10.02734375,-0.0028658203125
10.03125,-0.002796875
10.03515625,-0.0026337890625
10.0390625,-0.002390625
10.04296875,-0.00211728515625
10.046875,-0.00188291015625
10.05078125,-0.00174638671875
10.0546875,-0.00173173828125
10.05859375,-0.00181708984375
10.0625,-0.0019474609375
10.06640625,-0.00206240234375
10.0703125,-0.0021244140625
10.07421875,-0.00213173828125
10.078125,-0.002111328125
10.08203125,-0.00209931640625
10.0859375,-0.0021185546875
10.08984375,-0.002166015625
10.09375,-0.00221552734375
10.09765625,-0.0022353515625
10.1015625,-0.00220732421875
10.10546875,-0.00213642578125
10.109375,-0.00204677734375
10.11328125,-0.00196767578125
10.1171875,-0.00191875
10.12109375,-0.00190302734375
10.125,-0.00190732421875
10.12890625,-0.0019103515625
10.1328125,-0.0018927734375
10.13671875,-0.00184677734375
10.140625,-0.00178115234375
10.14453125,-0.00172138671875
10.1484375,-0.001698046875
10.15234375,-0.00172998046875
10.15625,-0.00181123046875
10.16015625,-0.0019111328125
10.1640625,-0.00198759765625
10.16796875,-0.00200849609375
10.171875,-0.00197099609375
10.17578125,-0.00190576171875
10.1796875,-0.00186318359375
10.18359375,-0.0018876953125
10.1875,-0.00199306640625
10.19140625,-0.0021568359375
10.1953125,-0.002331640625
10.19921875,-0.00247041015625
10.203125,-0.00254560546875
10.20703125,-0.00256005859375
10.2109375,-0.0025421875
10.21484375,-0.00252861328125
10.21875,-0.00254453125
10.22265625,-0.0025927734375
10.2265625,-0.002658984375
10.23046875,-0.00272548828125
10.234375,-0.00278291015625
10.23828125,-0.00283056640625
10.2421875,-0.0028673828125
10.24609375,-0.0028818359375
10.25,-0.0028541015625
10.25390625,-0.00277255859375
10.2578125,-0.002646875
10.26171875,-0.00251103515625
10.265625,-0.00240595703125
10.26953125,-0.00235361328125
10.2734375,-0.00234326171875
10.27734375,-0.00233818359375
10.28125,-0.002301953125
10.28515625,-0.0022232421875
10.2890625,-0.00212607421875
10.29296875,-0.0020544921875
10.296875,-0.00204853515625
10.30078125,-0.00211982421875
10.3046875,-0.00224599609375
10.30859375,-0.00238359375
10.3125,-0.002492578125
10.31640625,-0.00255615234375
10.3203125,-0.002584765625
10.32421875,-0.00260283203125
10.328125,-0.00263125
10.33203125,-0.00267509765625
10.3359375,-0.00272421875
10.33984375,-0.002765625
10.34375,-0.0028
10.34765625,-0.00284716796875
10.3515625,-0.0029359375
10.35546875,-0.0030818359375
10.359375,-0.0032681640625
10.36328125,-0.00344521484375
10.3671875,-0.00354775390625
10.37109375,-0.00352646484375
10.375,-0.0033751953125
10.37890625,-0.0031349609375
10.3828125,-0.0028654296875
10.38671875,-0.0025953125
10.390625,-0.00229072265625
10.39453125,-0.00186904296875
10.3984375,-0.00125947265625
10.40234375,-0.0004701171875
10.40625,0.00038828125
10.41015625,0.001148828125
10.4140625,0.0016751953125
10.41796875,0.001934765625
10.421875,0.0020109375
10.42578125,0.002050390625
10.4296875,0.00218212890625
10.43359375,0.0024578125
10.4375,0.00284140625
10.44140625,0.0032478515625
10.4453125,0.0035951171875
10.44921875,0.00383935546875
10.453125,0.00397919921875
10.45703125,0.00404033203125
10.4609375,0.00405673828125
10.46484375,0.0040537109375
10.46875,0.0040349609375
10.47265625,0.003977734375
10.4765625,0.00384296875
10.48046875,0.00359697265625
10.484375,0.003233203125
10.48828125,0.00277978515625
10.4921875,0.0022884765625
10.49609375,0.00181630859375
10.5,0.00140908203125
10.50390625,0.00109365234375
10.5078125,0.0008728515625
10.51171875,0.0007310546875
10.515625,0.0006423828125
10.51953125,0.00058173828125
10.5234375,0.00052822265625
10.52734375,0.00046015625
10.53125,0.00035380859375
10.53515625,0.00019228515625
10.5390625,-0.00001884765625
10.54296875,-0.00025009765625
10.546875,-0.0004658203125
10.55078125,-0.00064833984375
10.5546875,-0.00081064453125
10.55859375,-0.00098642578125
10.5625,-0.0012037109375
10.56640625,-0.00146279296875
10.5703125,-0.00172978515625
10.57421875,-0.00195087890625
10.578125,-0.00207978515625
10.58203125,-0.0020986328125
10.5859375,-0.0020216796875
10.58984375,-0.00188212890625
10.59375,-0.00171259765625
10.59765625,-0.00153564453125
10.6015625,-0.0013658203125
10.60546875,-0.00121708984375
10.609375,-0.0011095703125
10.61328125,-0.00106845703125
10.6171875,-0.00111669921875
10.62109375,-0.00126201171875
10.625,-0.00148603515625
10.62890625,-0.001739453125
10.6328125,-0.0019521484375
10.63671875,-0.00205703125
10.640625,-0.00201904296875
10.64453125,-0.001852734375
10.6484375,-0.0016173828125
10.65234375,-0.00139521484375
10.65625,-0.00125947265625
10.66015625,-0.001252734375
10.6640625,-0.00137744140625
10.66796875,-0.00159873046875
10.671875,-0.001856640625
10.67578125,-0.00208125
10.6796875,-0.002208984375
10.68359375,-0.00219833984375
10.6875,-0.00204296875
10.69140625,-0.001778515625
10.6953125,-0.0014806640625
10.69921875,-0.001244921875
10.703125,-0.00115625
10.70703125,-0.001256640625
10.7109375,-0.00152802734375
10.71484375,-0.00190126953125
10.71875,-0.00228369140625
10.72265625,-0.00259189453125
10.7265625,-0.002776953125
10.73046875,-0.0028318359375
10.734375,-0.0027869140625
10.73828125,-0.00269248046875
10.7421875,-0.00260107421875
10.74609375,-0.00254765625
10.75,-0.00254033203125
10.75390625,-0.00256171875
10.7578125,-0.00258427734375
10.76171875,-0.0025890625
10.765625,-0.0025765625
10.76953125,-0.00255830078125
10.7734375,-0.002539453125
10.77734375,-0.00250556640625
10.78125,-0.00242822265625
10.78515625,-0.00228701171875
10.7890625,-0.0020900390625
10.79296875,-0.0018810546875
10.796875,-0.0017208984375
10.80078125,-0.001659375
10.8046875,-0.001709765625
10.80859375,-0.0018396484375
10.8125,-0.001986328125
10.81640625,-0.00208544921875
10.8203125,-0.00210068359375
10.82421875,-0.00203740234375
10.828125,-0.00193671875
10.83203125,-0.00185234375
10.8359375,-0.0018265625
10.83984375,-0.00187392578125
10.84375,-0.00197939453125
10.84765625,-0.002106640625
10.8515625,-0.00221298828125
10.85546875,-0.0022646484375
10.859375,-0.00224736328125
10.86328125,-0.002169140625
10.8671875,-0.0020564453125
10.87109375,-0.00194384765625
10.875,-0.0018619140625
10.87890625,-0.00182578125
10.8828125,-0.00183173828125
10.88671875,-0.00186201171875
10.890625,-0.00189521484375
10.89453125,-0.0019169921875
10.8984375,-0.00192529296875
10.90234375,-0.0019287109375
10.90625,-0.00194052734375
10.91015625,-0.00197197265625
10.9140625,-0.002026953125
10.91796875,-0.00210224609375
10.921875,-0.0021884765625
10.92578125,-0.002275390625
10.9296875,-0.00235732421875
10.93359375,-0.0024322265625
10.9375,-0.0024962890625
10.94140625,-0.00253779296875
10.9453125,-0.0025400390625
10.94921875,-0.00249267578125
10.953125,-0.0024037109375
10.95703125,-0.00230009765625
10.9609375,-0.00221845703125
10.96484375,-0.0021876953125
10.96875,-0.0022185546875
10.97265625,-0.00230009765625
10.9765625,-0.002407421875
10.98046875,-0.0025125
10.984375,-0.00259384765625
10.98828125,-0.00264189453125
10.9921875,-0.0026619140625
10.99609375,-0.00267158203125
11,-0.0026953125
11.00390625,-0.00275234375
11.0078125,-0.00284443359375
11.01171875,-0.0029521484375
11.015625,-0.0030419921875
11.01953125,-0.003077734375
11.0234375,-0.00303271484375
11.02734375,-0.0028958984375
11.03125,-0.002680859375
11.03515625,-0.00242568359375
11.0390625,-0.0021875
11.04296875,-0.00202587890625
11.046875,-0.00198193359375
11.05078125,-0.00206064453125
11.0546875,-0.0022302734375
11.05859375,-0.00243291015625
11.0625,-0.0026080078125
11.06640625,-0.0027123046875
11.0703125,-0.0027330078125
11.07421875,-0.00268974609375
11.078125,-0.0026224609375
11.08203125,-0.00257431640625
11.0859375,-0.0025748046875
11.08984375,-0.00263037109375
11.09375,-0.0027271484375
11.09765625,-0.0028419921875
11.1015625,-0.0029564453125
11.10546875,-0.00306484375
11.109375,-0.00317109375
11.11328125,-0.00327724609375
11.1171875,-0.00337177734375
11.12109375,-0.00343125
11.125,-0.00343095703125
11.12890625,-0.003364453125
11.1328125,-0.0032515625
11.13671875,-0.003134765625
11.140625,-0.003062890625
11.14453125,-0.0030677734375
11.1484375,-0.0031490234375
11.15234375,-0.0032732421875
11.15625,-0.00338779296875
11.16015625,-0.0034455078125
11.1640625,-0.003426953125
11.16796875,-0.00334970703125
11.171875,-0.00325791015625
11.17578125,-0.00319609375
11.1796875,-0.00318662109375
11.18359375,-0.0032189453125
11.1875,-0.00325986328125
11.19140625,-0.0032755859375
11.1953125,-0.003250390625
11.19921875,-0.00318974609375
11.203125,-0.0031115234375
11.20703125,-0.00303173828125
11.2109375,-0.00295849609375
11.21484375,-0.0028966796875
11.21875,-0.0028568359375
11.22265625,-0.0028580078125
11.2265625,-0.00291787109375
11.23046875,-0.003034765625
11.234375,-0.00317509765625
11.23828125,-0.00327998046875
11.2421875,-0.00328974609375
11.24609375,-0.00317421875
11.25,-0.0029494140625
11.25390625,-0.00267119140625
11.2578125,-0.00241064453125
11.26171875,-0.0022240234375
11.265625,-0.00213271484375
11.26953125,-0.00212294921875
11.2734375,-0.002157421875
11.27734375,-0.00219892578125
11.28125,-0.00223017578125
11.28515625,-0.0022626953125
11.2890625,-0.002324609375
11.29296875,-0.00243623046875
11.296875,-0.00259111328125
11.30078125,-0.00275126953125
11.3046875,-0.00286650390625
11.30859375,-0.0029021484375
11.3125,-0.0028640625
11.31640625,-0.0028029296875
11.3203125,-0.00279365234375
11.32421875,-0.00289814453125
11.328125,-0.00312822265625
11.33203125,-0.0034310546875
11.3359375,-0.00370908203125
11.33984375,-0.0038642578125
11.34375,-0.0038447265625
11.34765625,-0.00366826171875
11.3515625,-0.00341259765625
11.35546875,-0.003178515625
11.359375,-0.00304560546875
11.36328125,-0.003040625
11.3671875,-0.00313173828125
11.37109375,-0.00325185546875
11.375,-0.0033333984375
11.37890625,-0.00333857421875
11.3828125,-0.0032689453125
11.38671875,-0.00315703125
11.390625,-0.00304384765625
11.39453125,-0.00295849609375
11.3984375,-0.0029072265625
11.40234375,-0.00287548828125
11.40625,-0.00284072265625
11.41015625,-0.0027896484375
11.4140625,-0.002728515625
11.41796875,-0.0026822265625
11.421875,-0.0026796875
11.42578125,-0.00273603515625
11.4296875,-0.00284267578125
11.43359375,-0.00296875
11.4375,-0.003072265625
11.44140625,-0.00311630859375
11.4453125,-0.0030822265625
11.44921875,-0.002978125
11.453125,-0.00283583984375
11.45703125,-0.00269892578125
11.4609375,-0.0026029296875
11.46484375,-0.0025591796875
11.46875,-0.002551171875
11.47265625,-0.00254306640625
11.4765625,-0.0024994140625
11.48046875,-0.00240439453125
11.484375,-0.00226982421875
11.48828125,-0.00212958984375
11.4921875,-0.00202333984375
11.49609375,-0.00198173828125
11.5,-0.0020189453125
11.50390625,-0.002130078125
11.5078125,-0.00229306640625
11.51171875,-0.00247216796875
11.515625,-0.00262880859375
11.51953125,-0.00273369140625
11.5234375,-0.00277548828125
11.52734375,-0.00276484375
11.53125,-0.00272802734375
11.53515625,-0.002694921875
11.5390625,-0.00268583984375
11.54296875,-0.00270185546875
11.546875,-0.0027294921875
11.55078125,-0.00274931640625
11.5546875,-0.00274736328125
11.55859375,-0.00272080078125
11.5625,-0.0026779296875
11.56640625,-0.00263349609375
11.5703125,-0.00260341796875
11.57421875,-0.0025955078125
11.578125,-0.0026029296875
11.58203125,-0.00260322265625
11.5859375,-0.002567578125
11.58984375,-0.0024767578125
11.59375,-0.00233388671875
11.59765625,-0.002166015625
11.6015625,-0.00201552734375
11.60546875,-0.001926171875
11.609375,-0.00192802734375
11.61328125,-0.00202578125
11.6171875,-0.00219384765625
11.62109375,-0.002381640625
11.625,-0.0025296875
11.62890625,-0.00259140625
11.6328125,-0.0025544921875
11.63671875,-0.00244716796875
11.640625,-0.00232509765625
11.64453125,-0.0022458984375
11.6484375,-0.0022427734375
11.65234375,-0.00231337890625
11.65625,-0.002426953125
11.66015625,-0.0025453125
11.6640625,-0.00264365234375
11.66796875,-0.0027189453125
11.671875,-0.00278203125
11.67578125,-0.00284375
11.6796875,-0.00290478515625
11.68359375,-0.00296044921875
11.6875,-0.00300869140625
11.69140625,-0.003055078125
11.6953125,-0.0031103515625
11.69921875,-0.00318115234375
11.703125,-0.003262890625
11.70703125,-0.00333935546875
11.7109375,-0.0033884765625
11.71484375,-0.0033916015625
11.71875,-0.00334169921875
11.72265625,-0.00324912109375
11.7265625,-0.0031408203125
11.73046875,-0.00305146484375
11.734375,-0.0030126953125
11.73828125,-0.00304296875
11.7421875,-0.00314052734375
11.74609375,-0.00328349609375
11.75,-0.00343671875
11.75390625,-0.003565234375
11.7578125,-0.003648828125
11.76171875,-0.00368798828125
11.765625,-0.00370048828125
11.76953125,-0.00370791015625
11.7734375,-0.00372607421875
11.77734375,-0.0037611328125
11.78125,-0.00381201171875
11.78515625,-0.0038724609375
11.7890625,-0.0039328125
11.79296875,-0.00398017578125
11.796875,-0.0040033203125
11.80078125,-0.0039982421875
11.8046875,-0.00397470703125
11.80859375,-0.00395615234375
11.8125,-0.00397177734375
11.81640625,-0.00404052734375
11.8203125,-0.0041572265625
11.82421875,-0.00428837890625
11.828125,-0.0043828125
11.83203125,-0.00439052734375
11.8359375,-0.00428515625
11.83984375,-0.0040763671875
11.84375,-0.00381083984375
11.84765625,-0.0035580078125
11.8515625,-0.00338828125
11.85546875,-0.003348046875
11.859375,-0.0034419921875
11.86328125,-0.00362919921875
11.8671875,-0.0038375
11.87109375,-0.00399267578125
11.875,-0.004048046875
11.87890625,-0.0039998046875
11.8828125,-0.003882421875
11.88671875,-0.0037509765625
11.890625,-0.00365625
11.89453125,-0.003628515625
11.8984375,-0.0036720703125
11.90234375,-0.00377099609375
11.90625,-0.00390068359375
11.91015625,-0.00403515625
11.9140625,-0.0041505859375
11.91796875,-0.0042279296875
11.921875,-0.0042560546875
11.92578125,-0.00423408203125
11.9296875,-0.00417158203125
11.93359375,-0.00408642578125
11.9375,-0.00400380859375
11.94140625,-0.0039513671875
11.9453125,-0.00395146484375
11.94921875,-0.004009375
11.953125,-0.00410400390625
11.95703125,-0.00418828125
11.9609375,-0.00420654296875
11.96484375,-0.0041205078125
11.96875,-0.003932421875
11.97265625,-0.00369306640625
11.9765625,-0.0034837890625
11.98046875,-0.00338173828125
11.984375,-0.00342470703125
11.98828125,-0.00359619140625
11.9921875,-0.00383671875
11.99609375,-0.00407060546875
12,-0.00423408203125
12.00390625,-0.00429345703125
12.0078125,-0.0042482421875
12.01171875,-0.004126953125
12.015625,-0.0039734375
12.01953125,-0.00383154296875
12.0234375,-0.00373076171875
12.02734375,-0.00368154296875
12.03125,-0.00367998046875
12.03515625,-0.00371630859375
12.0390625,-0.0037828125
12.04296875,-0.00387509765625
12.046875,-0.00398916015625
12.05078125,-0.0041150390625
12.0546875,-0.0042357421875
12.05859375,-0.00433232421875
12.0625,-0.00439306640625
12.06640625,-0.0044169921875
12.0703125,-0.00441298828125
12.07421875,-0.0043953125
12.078125,-0.00437890625
12.08203125,-0.0043755859375
12.0859375,-0.004390234375
12.08984375,-0.0044146484375
12.09375,-0.00442783203125
12.09765625,-0.00440078125
12.1015625,-0.00431376953125
12.10546875,-0.00417158203125
12.109375,-0.00401181640625
12.11328125,-0.0038939453125
12.1171875,-0.00387236328125
12.12109375,-0.0039673828125
12.125,-0.00415244140625
12.12890625,-0.00436513671875
12.1328125,-0.0045357421875
12.13671875,-0.00462099609375
12.140625,-0.00462177734375
12.14453125,-0.004578125
12.1484375,-0.00454013671875
12.15234375,-0.00453564453125
12.15625,-0.00455302734375
12.16015625,-0.00454775390625
12.1640625,-0.0044708984375
12.16796875,-0.00430009765625
12.171875,-0.0040564453125
12.17578125,-0.00379990234375
12.1796875,-0.00360087890625
12.18359375,-0.0035048828125
12.1875,-0.00350830078125
12.19140625,-0.00356201171875
12.1953125,-0.00360048828125
12.19921875,-0.00358134765625
12.203125,-0.00351171875
12.20703125,-0.00344501953125
12.2109375,-0.0034466796875
12.21484375,-0.00355205078125
12.21875,-0.00373994140625
12.22265625,-0.0039400390625
12.2265625,-0.00407099609375
12.23046875,-0.0040845703125
12.234375,-0.00399150390625
12.23828125,-0.00385546875
12.2421875,-0.0037587890625
12.24609375,-0.00376005859375
12.25,-0.003870703125
12.25390625,-0.0040564453125
12.2578125,-0.0042619140625
12.26171875,-0.00443623046875
12.265625,-0.00455068359375
12.26953125,-0.00460009765625
12.2734375,-0.0045962890625
12.27734375,-0.00455712890625
12.28125,-0.0045001953125
12.28515625,-0.00444033203125
12.2890625,-0.0043896484375
12.29296875,-0.00435859375
12.296875,-0.0043564453125
12.30078125,-0.004390234375
12.3046875,-0.0044626953125
12.30859375,-0.00456728515625
12.3125,-0.00468544921875
12.31640625,-0.0047896484375
12.3203125,-0.00485185546875
12.32421875,-0.00485693359375
12.328125,-0.00481123046875
12.33203125,-0.00474365234375
12.3359375,-0.00469267578125
12.33984375,-0.004686328125
12.34375,-0.00472666015625
12.34765625,-0.00478935546875
12.3515625,-0.00483837890625
12.35546875,-0.00484541015625
12.359375,-0.00480263671875
12.36328125,-0.00472373046875
12.3671875,-0.00463408203125
12.37109375,-0.0045578125
12.375,-0.0045048828125
12.37890625,-0.00445810546875
12.3828125,-0.0043580078125
12.38671875,-0.0040890625
12.390625,-0.00347861328125
12.39453125,-0.0023234375
12.3984375,-0.00043603515625
12.40234375,0.0022955078125
12.40625,0.00586650390625
12.41015625,0.01014609375
12.4140625,0.0149103515625
12.41796875,0.01990302734375
12.421875,0.0248994140625
12.42578125,0.0297419921875
12.4296875,0.034338671875
12.43359375,0.0386298828125
12.4375,0.04255361328125
12.44140625,0.046024609375
12.4453125,0.04894052734375
12.44921875,0.0512095703125
12.453125,0.05278779296875
12.45703125,0.05370888671875
12.4609375,0.054087109375
12.46484375,0.0540921875
12.46875,0.0539080078125
12.47265625,0.0536880859375
12.4765625,0.05352763671875
12.48046875,0.05345498046875
12.484375,0.05344619140625
12.48828125,0.05345517578125
12.4921875,0.05344423828125
12.49609375,0.05340263671875
12.5,0.05334462890625
12.50390625,0.05329306640625
12.5078125,0.05326142578125
12.51171875,0.05324443359375
12.515625,0.05322412109375
12.51953125,0.05318076171875
12.5234375,0.05310107421875
12.52734375,0.052980859375
12.53125,0.0528205078125
12.53515625,0.05262265625
12.5390625,0.05239296875
12.54296875,0.05214306640625
12.546875,0.0518935546875
12.55078125,0.05167255859375
12.5546875,0.05150947265625
12.55859375,0.05142890625
12.5625,0.0514419921875
12.56640625,0.05154091796875
12.5703125,0.0517001953125
12.57421875,0.05188251953125
12.578125,0.0520515625
12.58203125,0.052184765625
12.5859375,0.05228349609375
12.58984375,0.05237275390625
12.59375,0.0524861328125
12.59765625,0.05264423828125
12.6015625,0.0528357421875
12.60546875,0.0530171875
12.609375,0.05313447265625
12.61328125,0.05315185546875
12.6171875,0.0530740234375
12.62109375,0.0529462890625
12.625,0.0528328125
12.62890625,0.0527859375
12.6328125,0.0528224609375
12.63671875,0.0529173828125
12.640625,0.05301689453125
12.64453125,0.0530607421875
12.6484375,0.05300556640625
12.65234375,0.05284130859375
12.65625,0.05259853515625
12.66015625,0.05234140625
12.6640625,0.05214482421875
12.66796875,0.052065234375
12.671875,0.05211904296875
12.67578125,0.052277734375
12.6796875,0.0524841796875
12.68359375,0.05268154296875
12.6875,0.05283671875
12.69140625,0.0529501953125
12.6953125,0.05304521484375
12.69921875,0.05314775390625
12.703125,0.0532671875
12.70703125,0.053394140625
12.7109375,0.05350947265625
12.71484375,0.05360302734375
12.71875,0.053681640625
12.72265625,0.0537634765625
12.7265625,0.05386103515625
12.73046875,0.0539697265625
12.734375,0.05406728515625
12.73828125,0.05412626953125
12.7421875,0.05413125
12.74609375,0.05408857421875
12.75,0.0540267578125
12.75390625,0.05398037109375
12.7578125,0.05397412109375
12.76171875,0.05401220703125
12.765625,0.05408193359375
12.76953125,0.05416611328125
12.7734375,0.0542521484375
12.77734375,0.05433466796875
12.78125,0.05441025390625
12.78515625,0.05447294921875
12.7890625,0.05451064453125
12.79296875,0.05450458984375
12.796875,0.05443369140625
12.80078125,0.05428603515625
12.8046875,0.05406953125
12.80859375,0.05381904296875
12.8125,0.053590234375
12.81640625,0.05344384765625
12.8203125,0.05342548828125
12.82421875,0.05354580078125
12.828125,0.05377314453125
12.83203125,0.0540416015625
12.8359375,0.05427353515625
12.83984375,0.05440654296875
12.84375,0.05441181640625
12.84765625,0.05430009765625
12.8515625,0.05411162109375
12.85546875,0.05389814453125
12.859375,0.05370673828125
12.86328125,0.05357041015625
12.8671875,0.0535080078125
12.87109375,0.05352431640625
12.875,0.053611328125
12.87890625,0.05374814453125
12.8828125,0.0539052734375
12.88671875,0.0540544921875
12.890625,0.05417685546875
12.89453125,0.05426728515625
12.8984375,0.05433212890625
12.90234375,0.05438505859375
12.90625,0.05444267578125
12.91015625,0.05452099609375
12.9140625,0.05462939453125
12.91796875,0.054767578125
12.921875,0.05492373046875
12.92578125,0.0550765625
12.9296875,0.055200390625
12.93359375,0.055273828125
12.9375,0.05528896484375
12.94140625,0.0552529296875
12.9453125,0.055186328125
12.94921875,0.055115234375
12.953125,0.0550609375
12.95703125,0.05503359375
12.9609375,0.05503076171875
12.96484375,0.0550435546875
12.96875,0.0550630859375
12.97265625,0.05508564453125
12.9765625,0.0551146484375
12.98046875,0.05515869140625
12.984375,0.05522783203125
12.98828125,0.05532734375
12.9921875,0.0554533203125
12.99609375,0.05559365234375
13,0.05573076171875
13.00390625,0.05584560546875
13.0078125,0.05592197265625
13.01171875,0.05595146484375
13.015625,0.05593955078125
13.01953125,0.05590498046875
13.0234375,0.05587333984375
13.02734375,0.0558634765625
13.03125,0.05587607421875
13.03515625,0.05589208984375
13.0390625,0.05588095703125
13.04296875,0.0558154296875
13.046875,0.05568974609375
13.05078125,0.0555263671875
13.0546875,0.05537265625
13.05859375,0.05528564453125
13.0625,0.05531044921875
13.06640625,0.05546083984375
13.0703125,0.05570927734375
13.07421875,0.05599306640625
13.078125,0.05623330078125
13.08203125,0.0563625
13.0859375,0.0563486328125
13.08984375,0.0562056640625
13.09375,0.0559869140625
13.09765625,0.05576103515625
13.1015625,0.05558662109375
13.10546875,0.05549423828125
13.109375,0.05548447265625
13.11328125,0.05553466796875
13.1171875,0.05561298828125
13.12109375,0.05569033203125
13.125,0.05574814453125
13.12890625,0.0557833984375
13.1328125,0.05580712890625
13.13671875,0.055836328125
13.140625,0.05588271484375
13.14453125,0.0559416015625
13.1484375,0.055991796875
13.15234375,0.05600751953125
13.15625,0.0559734375
13.16015625,0.05589482421875
13.1640625,0.0557955078125
13.16796875,0.055707421875
13.171875,0.05566005859375
13.17578125,0.05567158203125
13.1796875,0.0557439453125
13.18359375,0.05586220703125
13.1875,0.05599482421875
13.19140625,0.05609912109375
13.1953125,0.05613447265625
13.19921875,0.05608212890625
13.203125,0.055958203125
13.20703125,0.05581533203125
13.2109375,0.0557236328125
13.21484375,0.0557396484375
13.21875,0.05587822265625
13.22265625,0.05610224609375
13.2265625,0.0563376953125
13.23046875,0.05650966796875
13.234375,0.0565763671875
13.23828125,0.05654443359375
13.2421875,0.0564611328125
13.24609375,0.0563865234375
13.25,0.0563623046875
13.25390625,0.05639453125
13.2578125,0.056459375
13.26171875,0.05652607421875
13.265625,0.056579296875
13.26953125,0.05662744140625
13.2734375,0.05669072265625
13.27734375,0.05678193359375
13.28125,0.0568947265625
13.28515625,0.05700439453125
13.2890625,0.05708291015625
13.29296875,0.05711494140625
13.296875,0.05710595703125
13.30078125,0.05707744140625
13.3046875,0.0570541015625
13.30859375,0.0570484375
13.3125,0.05705625
13.31640625,0.05706171875
13.3203125,0.0570484375
13.32421875,0.0570091796875
13.328125,0.0569462890625
13.33203125,0.05686943359375
13.3359375,0.05679169921875
13.33984375,0.05672890625
13.34375,0.0566974609375
13.34765625,0.0567107421875
13.3515625,0.056774609375
13.35546875,0.05688203125
13.359375,0.05701259765625
13.36328125,0.05713662109375
13.3671875,0.05722490234375
13.37109375,0.05725888671875
13.375,0.0572349609375
13.37890625,0.05716318359375
13.3828125,0.0570609375
13.38671875,0.05694609375
13.390625,0.0568328125
13.39453125,0.0567279296875
13.3984375,0.0566279296875
13.40234375,0.056522265625
13.40625,0.05640009765625
13.41015625,0.0562619140625
13.4140625,0.05612626953125
13.41796875,0.05602646484375
13.421875,0.055995703125
13.42578125,0.05604658203125
13.4296875,0.0561576171875
13.43359375,0.0562818359375
13.4375,0.0563705078125
13.44140625,0.05639501953125
13.4453125,0.056333984375
13.44921875,0.05611630859375
13.453125,0.05556044921875
13.45703125,0.05437041015625
13.4609375,0.05222119140625
13.46484375,0.04889716796875
13.46875,0.04441015625
13.47265625,0.03902763671875
13.4765625,0.03318955078125
13.48046875,0.02735625
13.484375,0.02187119140625
13.48828125,0.0169076171875
13.4921875,0.01250634765625
13.49609375,0.008661328125
13.5,0.00538974609375
13.50390625,0.0027568359375
13.5078125,0.00084677734375
13.51171875,-0.000292578125
13.515625,-0.00070810546875
13.51953125,-0.0005646484375
13.5234375,-0.000119140625
13.52734375,0.00035322265625
13.53125,0.00064921875
13.53515625,0.00070166015625
13.5390625,0.00058173828125
13.54296875,0.00043818359375
13.546875,0.00040625
13.55078125,0.0005396484375
13.5546875,0.00079326171875
13.55859375,0.00105986328125
13.5625,0.0012287109375
13.56640625,0.001233203125
13.5703125,0.0010716796875
13.57421875,0.000800390625
13.578125,0.00050537109375
13.58203125,0.00026796875
13.5859375,0.00013662109375
13.58984375,0.0001115234375
13.59375,0.00015224609375
13.59765625,0.00019677734375
13.6015625,0.00018994140625
13.60546875,0.00010322265625
13.609375,-0.00005615234375
13.61328125,-0.00025087890625
13.6171875,-0.0004294921875
13.62109375,-0.000549609375
13.625,-0.000596875
13.62890625,-0.000590234375
13.6328125,-0.00057099609375
13.63671875,-0.00058193359375
13.640625,-0.00064658203125
13.64453125,-0.0007607421875
13.6484375,-0.000895703125
13.65234375,-0.00100966796875
13.65625,-0.00106376953125
13.66015625,-0.00103515625
13.6640625,-0.0009240234375
13.66796875,-0.000756640625
13.671875,-0.00057763671875
13.67578125,-0.0004380859375
13.6796875,-0.00037646484375
13.68359375,-0.00040205078125
13.6875,-0.00049365234375
13.69140625,-0.0006119140625
13.6953125,-0.00072109375
13.69921875,-0.0008044921875
13.703125,-0.00086962890625
13.70703125,-0.00093427734375
13.7109375,-0.00100791015625
13.71484375,-0.00107685546875
13.71875,-0.00110673828125
13.72265625,-0.0010609375
13.7265625,-0.00092451171875
13.73046875,-0.0007189453125
13.734375,-0.00049873046875
13.73828125,-0.00032685546875
13.7421875,-0.0002470703125
13.74609375,-0.0002646484375
13.75,-0.0003484375
13.75390625,-0.000450390625
13.7578125,-0.00053037109375
13.76171875,-0.0005724609375
13.765625,-0.00058232421875
13.76953125,-0.0005748046875
13.7734375,-0.00056162109375
13.77734375,-0.000548046875
13.78125,-0.00053974609375
13.78515625,-0.0005443359375
13.7890625,-0.000567578125
13.79296875,-0.00060546875
13.796875,-0.00064052734375
13.80078125,-0.0006447265625
13.8046875,-0.00059052734375
13.80859375,-0.000466796875
13.8125,-0.000291015625
13.81640625,-0.00010546875
13.8203125,0.0000390625
13.82421875,0.00010791015625
13.828125,0.0000986328125
13.83203125,0.0000431640625
13.8359375,-0.0000083984375
13.83984375,-0.00001240234375
13.84375,0.00004482421875
13.84765625,0.00013955078125
13.8515625,0.0002236328125
13.85546875,0.00025068359375
13.859375,0.00019765625
13.86328125,0.00007548828125
13.8671875,-0.0000802734375
13.87109375,-0.00022744140625
13.875,-0.00033505859375
13.87890625,-0.000390234375
13.8828125,-0.00039423828125
13.88671875,-0.00035400390625
13.890625,-0.0002748046875
13.89453125,-0.0001619140625
13.8984375,-0.0000248046875
13.90234375,0.00011767578125
13.90625,0.00023720703125
13.91015625,0.00030517578125
13.9140625,0.00030341796875
13.91796875,0.00023291015625
13.921875,0.00011708984375
13.92578125,-0.00000556640625
13.9296875,-0.00009462890625
13.93359375,-0.0001251953125
13.9375,-0.0000984375
13.94140625,-0.00004267578125
13.9453125,-0.000001953125
13.94921875,-0.00001630859375
13.953125,-0.000098828125
13.95703125,-0.00022373046875
13.9609375,-0.000334375
13.96484375,-0.000367578125
13.96875,-0.00028876953125
13.97265625,-0.00011220703125
13.9765625,0.0001009765625
13.98046875,0.000271875
13.984375,0.0003447265625
13.98828125,0.00031279296875
13.9921875,0.0002205078125
13.99609375,0.000137890625
14,0.0001234375
14.00390625,0.00020009765625
14.0078125,0.0003513671875
14.01171875,0.0005384765625
14.015625,0.00071865234375
14.01953125,0.00085849609375
14.0234375,0.0009388671875
14.02734375,0.00095546875
14.03125,0.0009166015625
14.03515625,0.00084267578125
14.0390625,0.00076240234375
14.04296875,0.0007052734375
14.046875,0.00069306640625
14.05078125,0.00073134765625
14.0546875,0.00080576171875
14.05859375,0.00088837890625
14.0625,0.000951953125
14.06640625,0.0009810546875
14.0703125,0.00097939453125
14.07421875,0.000965625
14.078125,0.0009634765625
14.08203125,0.00099091796875
14.0859375,0.001051171875
14.08984375,0.00112939453125
14.09375,0.00119951171875
14.09765625,0.00123544921875
14.1015625,0.00122197265625
14.10546875,0.001159765625
14.109375,0.00106162109375
14.11328125,0.00094560546875
14.1171875,0.00082705078125
14.12109375,0.0007142578125
14.125,0.000609765625
14.12890625,0.000518359375
14.1328125,0.00045224609375
14.13671875,0.00042890625
14.140625,0.00046259765625
14.14453125,0.0005544921875
14.1484375,0.00068818359375
14.15234375,0.00083369140625
14.15625,0.00095888671875
14.16015625,0.00103994140625
14.1640625,0.00107021484375
14.16796875,0.0010607421875
14.171875,0.00103291015625
14.17578125,0.00100927734375
14.1796875,0.00100263671875
14.18359375,0.00101357421875
14.1875,0.001030859375
14.19140625,0.00103857421875
14.1953125,0.00102451171875
14.19921875,0.00099072265625
14.203125,0.000954296875
14.20703125,0.00093994140625
14.2109375,0.00096484375
14.21484375,0.001026171875
14.21875,0.0010990234375
14.22265625,0.001146484375
14.2265625,0.00113662109375
14.23046875,0.00105732421875
14.234375,0.00092392578125
14.23828125,0.00077353515625
14.2421875,0.00064951171875
14.24609375,0.00058408203125
14.25,0.00058583984375
14.25390625,0.00063623046875
14.2578125,0.0006986328125
14.26171875,0.00073359375
14.265625,0.00071708984375
14.26953125,0.00065390625
14.2734375,0.00057578125
14.27734375,0.000528515625
14.28125,0.000546875
14.28515625,0.0006345703125
14.2890625,0.00076005859375
14.29296875,0.0008744140625
14.296875,0.0009349609375
14.30078125,0.00092216796875
14.3046875,0.0008388671875
14.30859375,0.00069951171875
14.3125,0.0005197265625
14.31640625,0.0003140625
14.3203125,0.00009951171875
14.32421875,-0.000099609375
14.328125,-0.00025546875
14.33203125,-0.00034716796875
14.3359375,-0.00037099609375
14.33984375,-0.00034208984375
14.34375,-0.000283203125
14.34765625,-0.00021376953125
14.3515625,-0.00014228515625
14.35546875,-0.00007119140625
14.359375,-0.00000244140625
14.36328125,0.000061328125
14.3671875,0.000117578125
14.37109375,0.00016572265625
14.375,0.00020517578125
14.37890625,0.00023720703125
14.3828125,0.00026708984375
14.38671875,0.00030458984375
14.390625,0.0003564453125
14.39453125,0.00041943359375
14.3984375,0.0004791015625
14.40234375,0.0005201171875
14.40625,0.000537890625
14.41015625,0.000546484375
14.4140625,0.00057431640625
14.41796875,0.00064990234375
14.421875,0.00078359375
14.42578125,0.00095791015625
14.4296875,0.0011349609375
14.43359375,0.00127353515625
14.4375,0.00134365234375
14.44140625,0.00133125
14.4453125,0.00123291015625
14.44921875,0.0010513671875
14.453125,0.00079912109375
14.45703125,0.0005029296875
14.4609375,0.0002046875
14.46484375,-0.00004541015625
14.46875,-0.00020283203125
14.47265625,-0.0002357421875
14.4765625,-0.0001259765625
14.48046875,0.00013583984375
14.484375,0.00055458984375
14.48828125,0.001125
14.4921875,0.00182509765625
14.49609375,0.002607421875
14.5,0.0034060546875
14.50390625,0.00415458984375
14.5078125,0.00480771484375
14.51171875,0.0053529296875
14.515625,0.00580810546875
14.51953125,0.0062142578125
14.5234375,0.0066216796875
14.52734375,0.00707099609375
14.53125,0.007574609375
14.53515625,0.008105859375
14.5390625,0.00860703125
14.54296875,0.00901240234375
14.546875,0.009276953125
14.55078125,0.009398828125
14.5546875,0.0094185546875
14.55859375,0.00939423828125
14.5625,0.00936376953125
14.56640625,0.009320703125
14.5703125,0.00921953125
14.57421875,0.0090078125
14.578125,0.008662890625
14.58203125,0.0082115234375
14.5859375,0.00772197265625
14.58984375,0.007273828125
14.59375,0.00692392578125
14.59765625,0.00668203125
14.6015625,0.00651171875
14.60546875,0.0063513671875
14.609375,0.00614658203125
14.61328125,0.0058755859375
14.6171875,0.00555634765625
14.62109375,0.0052330078125
14.625,0.004954296875
14.62890625,0.00475283203125
14.6328125,0.0046359375
14.63671875,0.0045859375
14.640625,0.00456767578125
14.64453125,0.0045404296875
14.6484375,0.00447177734375
14.65234375,0.0043509765625
14.65625,0.004190234375
14.66015625,0.0040171875
14.6640625,0.00386220703125
14.66796875,0.003748828125
14.671875,0.003693359375
14.67578125,0.00370546875
14.6796875,0.00378603515625
14.68359375,0.00391982421875
14.6875,0.004070703125
14.69140625,0.00418837890625
14.6953125,0.00422568359375
14.69921875,0.00415732421875
14.703125,0.00398916015625
14.70703125,0.003755859375
14.7109375,0.0035091796875
14.71484375,0.00330341796875
14.71875,0.00318017578125
14.72265625,0.00315791015625
14.7265625,0.00322412109375
14.73046875,0.00333798828125
14.734375,0.0034423828125
14.73828125,0.00348671875
14.7421875,0.00344697265625
14.74609375,0.0033359375
14.75,0.0031970703125
14.75390625,0.0030837890625
14.7578125,0.00303779296875
14.76171875,0.00307216796875
14.765625,0.00316826171875
14.76953125,0.00328486328125
14.7734375,0.003375390625
14.77734375,0.00340478515625
14.78125,0.00336142578125
14.78515625,0.003260546875
14.7890625,0.00313623046875
14.79296875,0.0030234375
14.796875,0.00294326171875
14.80078125,0.00289921875
14.8046875,0.00288720703125
14.80859375,0.00290791015625
14.8125,0.0029712890625
14.81640625,0.003088671875
14.8203125,0.003258203125
14.82421875,0.00345888671875
14.828125,0.003653125
14.83203125,0.00379794921875
14.8359375,0.003859375
14.83984375,0.0038203125
14.84375,0.00368447265625
14.84765625,0.00347431640625
14.8515625,0.00322802734375
14.85546875,0.00299296875
14.859375,0.0028185546875
14.86328125,0.00274443359375
14.8671875,0.00278818359375
14.87109375,0.00293447265625
14.875,0.00313447265625
14.87890625,0.00331865234375
14.8828125,0.00341953125
14.88671875,0.0033921875
14.890625,0.0032275390625
14.89453125,0.0029533203125
14.8984375,0.00262646484375
14.90234375,0.00231552734375
14.90625,0.002079296875
14.91015625,0.00194892578125
14.9140625,0.00192216796875
14.91796875,0.0019708984375
14.921875,0.0020548828125
14.92578125,0.00213671875
14.9296875,0.00219111328125
14.93359375,0.00220654296875
14.9375,0.0021814453125
14.94140625,0.0021216796875
14.9453125,0.0020373046875
14.94921875,0.00194228515625
14.953125,0.0018537109375
14.95703125,0.00179033203125
14.9609375,0.00176865234375
14.96484375,0.0017966796875
14.96875,0.00186611328125
14.97265625,0.0019525390625
14.9765625,0.0020216796875
14.98046875,0.00204501953125
14.984375,0.00201494140625
14.98828125,0.00194921875
14.9921875,0.00188232421875
14.99609375,0.0018474609375
15,0.00186240234375
15.00390625,0.00192421875
15.0078125,0.002012109375
15.01171875,0.002096484375
15.015625,0.00214921875
15.01953125,0.00215166015625
15.0234375,0.00210107421875
15.02734375,0.002009375
15.03125,0.0019005859375
15.03515625,0.00180341796875
15.0390625,0.00173955078125
15.04296875,0.00171591796875
15.046875,0.0017244140625
15.05078125,0.00175048828125
15.0546875,0.0017826171875
15.05859375,0.001816796875
15.0625,0.00185537109375
15.06640625,0.0019021484375
15.0703125,0.001959765625
15.07421875,0.0020306640625
15.078125,0.00211806640625
15.08203125,0.002225390625
15.0859375,0.00235048828125
15.08984375,0.002480859375
15.09375,0.00259267578125
15.09765625,0.00265966796875
15.1015625,0.0026671875
15.10546875,0.00262197265625
15.109375,0.0025515625
15.11328125,0.00249052734375
15.1171875,0.00246259765625
15.12109375,0.0024701171875
15.125,0.00249599609375
15.12890625,0.0025189453125
15.1328125,0.0025279296875
15.13671875,0.0025271484375
15.140625,0.00253037109375
15.14453125,0.0025482421875
15.1484375,0.00257919921875
15.15234375,0.0026046875
15.15625,0.00259462890625
15.16015625,0.00252138671875
15.1640625,0.002375
15.16796875,0.0021736328125
15.171875,0.00195751953125
15.17578125,0.00177021484375
15.1796875,0.00163466796875
15.18359375,0.00154248046875
15.1875,0.00146376953125
15.19140625,0.001371484375
15.1953125,0.00126533203125
15.19921875,0.00117451171875
15.203125,0.00114052734375
15.20703125,0.00118994140625
15.2109375,0.0013216796875
15.21484375,0.00151044921875
15.21875,0.00171953125
15.22265625,0.0019119140625
15.2265625,0.002052734375
15.23046875,0.00211162109375
15.234375,0.00207001953125
15.23828125,0.00193349609375
15.2421875,0.001739453125
15.24609375,0.0015501953125
15.25,0.0014296875
15.25390625,0.001414453125
15.2578125,0.00149375
15.26171875,0.00161083984375
15.265625,0.00168779296875
15.26953125,0.0016595703125
15.2734375,0.00150478515625
15.27734375,0.0012552734375
15.28125,0.00098173828125
15.28515625,0.00076474609375
15.2890625,0.0006640625
15.29296875,0.0007
15.296875,0.00084814453125
15.30078125,0.00105009765625
15.3046875,0.0012322265625
15.30859375,0.0013328125
15.3125,0.0013224609375
15.31640625,0.0012146484375
15.3203125,0.00106201171875
15.32421875,0.0009369140625
15.328125,0.0009041015625
15.33203125,0.00099453125
15.3359375,0.00119208984375
15.33984375,0.00144150390625
15.34375,0.0016732421875
15.34765625,0.0018341796875
15.3515625,0.001904296875
15.35546875,0.0018962890625
15.359375,0.00184033203125
15.36328125,0.00176591796875
15.3671875,0.0016884765625
15.37109375,0.00160869140625
15.375,0.0015212890625
15.37890625,0.00143017578125
15.3828125,0.001355078125
15.38671875,0.001325
15.390625,0.00136240234375
15.39453125,0.00146884765625
15.3984375,0.00162119140625
15.40234375,0.00177861328125
15.40625,0.00189306640625
15.41015625,0.00192705078125
15.4140625,0.0018666015625
15.41796875,0.00172734375
15.421875,0.00154736328125
15.42578125,0.00136796875
15.4296875,0.00121494140625
15.43359375,0.00109326171875
15.4375,0.00099716796875
15.44140625,0.00092890625
15.4453125,0.00090888671875
15.44921875,0.00096767578125
15.453125,0.00112255859375
15.45703125,0.00135859375
15.4609375,0.00162421875
15.46484375,0.00184921875
15.46875,0.0019703125
15.47265625,0.0019533203125
15.4765625,0.0018025390625
15.48046875,0.0015595703125
15.484375,0.00129130859375
15.48828125,0.00107314453125
15.4921875,0.00096455078125
15.49609375,0.00099052734375
15.5,0.00112998046875
15.50390625,0.0013232421875
15.5078125,0.00149384765625
15.51171875,0.00157958984375
15.515625,0.0015533203125
15.51953125,0.00143154296875
15.5234375,0.0012625
15.52734375,0.00110576171875
15.53125,0.001011328125
15.53515625,0.00100595703125
15.5390625,0.00108896484375
15.54296875,0.00123603515625
15.546875,0.00141162109375
15.55078125,0.0015787109375
15.5546875,0.0017046875
15.55859375,0.00176201171875
15.5625,0.00172705078125
15.56640625,0.0015853515625
15.5703125,0.00133818359375
15.57421875,0.0010115234375
15.578125,0.00066064453125
15.58203125,0.000359375
15.5859375,0.00017822265625
15.58984375,0.00015537109375
15.59375,0.00027705078125
15.59765625,0.0004791015625
15.6015625,0.00067353515625
15.60546875,0.0007865234375
15.609375,0.0007880859375
15.61328125,0.000701171875
15.6171875,0.0005861328125
15.62109375,0.000510546875
15.625,0.00052001953125
15.62890625,0.00062109375
15.6328125,0.000782421875
15.63671875,0.000948828125
15.640625,0.00106474609375
15.64453125,0.00109599609375
15.6484375,0.00104296875
15.65234375,0.0009421875
15.65625,0.00084990234375
15.66015625,0.00081650390625
15.6640625,0.00086240234375
15.66796875,0.000969140625
15.671875,0.00109111328125
15.67578125,0.00117802734375
15.6796875,0.00119638671875
15.68359375,0.0011400390625
15.6875,0.00102705078125
15.69140625,0.0008888671875
15.6953125,0.000755859375
15.69921875,0.00064462890625
15.703125,0.000552734375
15.70703125,0.00046474609375
15.7109375,0.00036787109375
15.71484375,0.0002673828125
15.71875,0.000188671875
15.72265625,0.0001642578125
15.7265625,0.0002103515625
15.73046875,0.00031142578125
15.734375,0.00042265625
15.73828125,0.0004904296875
15.7421875,0.00047763671875
15.74609375,0.0003822265625
15.75,0.00023740234375
15.75390625,0.00009580078125
15.7578125,0.00000673828125
15.76171875,-0.0000037109375
15.765625,0.00006083984375
15.76953125,0.0001732421875
15.7734375,0.00029716796875
15.77734375,0.00040185546875
15.78125,0.0004693359375
15.78515625,0.00049453125
15.7890625,0.00048134765625
15.79296875,0.000437109375
15.796875,0.0003673828125
15.80078125,0.0002765625
15.8046875,0.0001720703125
15.80859375,0.0000697265625
15.8125,-0.0000103515625
15.81640625,-0.0000548828125
15.8203125,-0.000064453125
15.82421875,-0.00005380859375
15.828125,-0.0000439453125
15.83203125,-0.00005537109375
15.8359375,-0.00009931640625
15.83984375,-0.0001734375
15.84375,-0.000261328125
15.84765625,-0.00033681640625
15.8515625,-0.00037373046875
15.85546875,-0.000355078125
15.859375,-0.000276953125
15.86328125,-0.00014677734375
15.8671875,0.00002138671875
15.87109375,0.00021220703125
15.875,0.00041064453125
15.87890625,0.00060068359375
15.8828125,0.00076376953125
15.88671875,0.00087939453125
15.890625,0.00093203125
15.89453125,0.00091875
15.8984375,0.000856640625
15.90234375,0.000779296875
15.90625,0.00072431640625
15.91015625,0.0007169921875
15.9140625,0.00075830078125
15.91796875,0.000820703125
15.921875,0.00085458984375
15.92578125,0.00080498046875
15.9296875,0.000634765625
15.93359375,0.00034658203125
15.9375,-0.00000703125
15.94140625,-0.000339453125
15.9453125,-0.0005623046875
15.94921875,-0.00062392578125
15.953125,-0.00053056640625
15.95703125,-0.0003423828125
15.9609375,-0.000142578125
15.96484375,0.0000009765625
15.96875,0.00006279296875
15.97265625,0.00005947265625
15.9765625,0.0000314453125
15.98046875,0.00001416015625
15.984375,0.000021875
15.98828125,0.00004638671875
15.9921875,0.0000669921875
15.99609375,0.00006337890625
16,0.0000287109375
16.00390625,-0.00002509765625
16.0078125,-0.0000693359375
16.01171875,-0.000069140625
16.015625,0.00000009765625
16.01953125,0.00013779296875
16.0234375,0.00031484375
16.02734375,0.00048203125
16.03125,0.00058974609375
16.03515625,0.00060615234375
16.0390625,0.00052734375
16.04296875,0.00037548828125
16.046875,0.00018818359375
16.05078125,0.00000400390625
16.0546875,-0.00014775390625
16.05859375,-0.0002513671875
16.0625,-0.00030517578125
16.06640625,-0.00031767578125
16.0703125,-0.00030390625
16.07421875,-0.00028271484375
16.078125,-0.00027392578125
16.08203125,-0.00029306640625
16.0859375,-0.0003458984375
16.08984375,-0.00042568359375
16.09375,-0.0005125
16.09765625,-0.00057763671875
16.1015625,-0.0005916015625
16.10546875,-0.000535546875
16.109375,-0.00041044921875
16.11328125,-0.0002365234375
16.1171875,-0.00004248046875
16.12109375,0.00014521484375
16.125,0.00030830078125
16.12890625,0.00043408203125
16.1328125,0.0005109375
16.13671875,0.000528515625
16.140625,0.00048349609375
16.14453125,0.00038310546875
16.1484375,0.000250390625
16.15234375,0.00012314453125
16.15625,0.000047265625
16.16015625,0.0000626953125
16.1640625,0.00018623046875
16.16796875,0.000401171875
16.171875,0.000657421875
16.17578125,0.00088740234375
16.1796875,0.00102958984375
16.18359375,0.00105166015625
16.1875,0.00096337890625
16.19140625,0.00081025390625
16.1953125,0.0006537109375
16.19921875,0.00054462890625
16.203125,0.00050859375
16.20703125,0.00054404296875
16.2109375,0.00062998046875
16.21484375,0.00073564453125
16.21875,0.000829296875
16.22265625,0.0008849609375
16.2265625,0.00089091796875
16.23046875,0.00085498046875
16.234375,0.00080224609375
16.23828125,0.00076708984375
16.2421875,0.00077939453125
16.24609375,0.00085009765625
16.25,0.00096474609375
16.25390625,0.0010859375
16.2578125,0.00116611328125
16.26171875,0.00116337890625
16.265625,0.00105771484375
16.26953125,0.000858203125
16.2734375,0.000598046875
16.27734375,0.0003212890625
16.28125,0.00006572265625
16.28515625,-0.00014970703125
16.2890625,-0.00032548828125
16.29296875,-0.00047373046875
16.296875,-0.00060732421875
16.30078125,-0.00073203125
16.3046875,-0.00084638671875
16.30859375,-0.00094580078125
16.3125,-0.00102314453125
16.31640625,-0.00106787109375
16.3203125,-0.00106240234375
16.32421875,-0.0009849609375
16.328125,-0.0008216796875
16.33203125,-0.0005822265625
16.3359375,-0.0003068359375
16.33984375,-0.0000595703125
16.34375,0.000095703125
16.34765625,0.000122265625
16.3515625,0.000026171875
16.35546875,-0.00014638671875
16.359375,-0.00033193359375
16.36328125,-0.000476953125
16.3671875,-0.0005560546875
16.37109375,-0.00057236328125
16.375,-0.00054814453125
16.37890625,-0.000509375
16.3828125,-0.000475390625
16.38671875,-0.00045419921875
16.390625,-0.0004396484375
16.39453125,-0.00041484375
16.3984375,-0.0003609375
16.40234375,-0.000269140625
16.40625,-0.0001498046875
16.41015625,-0.00003232421875
16.4140625,0.0000486328125
16.41796875,0.0000685546875
16.421875,0.00002470703125
16.42578125,-0.00006201171875
16.4296875,-0.00015859375
16.43359375,-0.0002353515625
16.4375,-0.0002787109375
16.44140625,-0.00029345703125
16.4453125,-0.00030009765625
16.44921875,-0.00032861328125
16.453125,-0.0004109375
16.45703125,-0.000566015625
16.4609375,-0.0007830078125
16.46484375,-0.001015234375
16.46875,-0.00119326171875
16.47265625,-0.00125537109375
16.4765625,-0.00117763671875
16.48046875,-0.000974609375
16.484375,-0.00066875
16.48828125,-0.00024462890625
16.4921875,0.00037744140625
16.49609375,0.0013271484375
16.5,0.0027330078125
16.50390625,0.00465732421875
16.5078125,0.00704560546875
16.51171875,0.00971591796875
16.515625,0.0123923828125
16.51953125,0.01477275390625
16.5234375,0.0166078125
16.52734375,0.0177646484375
16.53125,0.0182578125
16.53515625,0.01823779296875
16.5390625,0.0179390625
16.54296875,0.01760087890625
16.546875,0.01739072265625
16.55078125,0.01736416015625
16.5546875,0.01747412109375
16.55859375,0.01761845703125
16.5625,0.01770029296875
16.56640625,0.01767158203125
16.5703125,0.0175484375
16.57421875,0.0173955078125
16.578125,0.01728876953125
16.58203125,0.017273046875
16.5859375,0.01734091796875
16.58984375,0.01743994140625
16.59375,0.01750556640625
16.59765625,0.0174947265625
16.6015625,0.0174029296875
16.60546875,0.0172576171875
16.609375,0.0170974609375
16.61328125,0.01695185546875
16.6171875,0.0168341796875
16.62109375,0.01674453125
16.625,0.01667802734375
16.62890625,0.016627734375
16.6328125,0.01658330078125
16.63671875,0.01653212890625
16.640625,0.01646337890625
16.64453125,0.01637236328125
16.6484375,0.01626552734375
16.65234375,0.0161576171875
16.65625,0.0160677734375
16.66015625,0.0160130859375
16.6640625,0.0160025390625
16.66796875,0.01603349609375
16.671875,0.0160884765625
16.67578125,0.01613798828125
16.6796875,0.016147265625
16.68359375,0.0160896484375
16.6875,0.0159607421875
16.69140625,0.01578623046875
16.6953125,0.0156177734375
16.69921875,0.015513671875
16.703125,0.01551416015625
16.70703125,0.01562431640625
16.7109375,0.01581162109375
16.71484375,0.0160205078125
16.71875,0.01619599609375
16.72265625,0.016307421875
16.7265625,0.01636416015625
16.73046875,0.01641015625
16.734375,0.0165021484375
16.73828125,0.01667958984375
16.7421875,0.01694716796875
16.74609375,0.01727900390625
16.75,0.01763671875
16.75390625,0.017988671875
16.7578125,0.0183169921875
16.76171875,0.0186126953125
16.765625,0.0188642578125
16.76953125,0.0190515625
16.7734375,0.01914970703125
16.77734375,0.01914267578125
16.78125,0.01903837890625
16.78515625,0.018869921875
16.7890625,0.01868408203125
16.79296875,0.01852216796875
16.796875,0.0184064453125
16.80078125,0.01833544921875
16.8046875,0.0182939453125
16.80859375,0.018265625
16.8125,0.01824208984375
16.81640625,0.01822490234375
16.8203125,0.01821689453125
16.82421875,0.01821328125
16.828125,0.01819716796875
16.83203125,0.01815009765625
16.8359375,0.01806640625
16.83984375,0.017966015625
16.84375,0.01788974609375
16.84765625,0.0178802734375
16.8515625,0.0179578125
16.85546875,0.01810703125
16.859375,0.01828427734375
16.86328125,0.0184373046875
16.8671875,0.0185279296875
16.87109375,0.018546875
16.875,0.01850849609375
16.87890625,0.01843798828125
16.8828125,0.01835654296875
16.88671875,0.01827685546875
16.890625,0.01820869140625
16.89453125,0.018166796875
16.8984375,0.0181716796875
16.90234375,0.01824296875
16.90625,0.0183888671875
16.91015625,0.0185966796875
16.9140625,0.01883095703125
16.91796875,0.01904013671875
16.921875,0.01917626953125
16.92578125,0.01921552734375
16.9296875,0.0191693359375
16.93359375,0.01907734375
16.9375,0.01898642578125
16.94140625,0.01892939453125
16.9453125,0.01891240234375
16.94921875,0.0189177734375
16.953125,0.01891748046875
16.95703125,0.01889111328125
16.9609375,0.01883720703125
16.96484375,0.01877255859375
16.96875,0.01871640625
16.97265625,0.0186732421875
16.9765625,0.01862509765625
16.98046875,0.0185431640625
16.984375,0.0184083984375
16.98828125,0.01823291015625
16.9921875,0.01806376953125
16.99609375,0.01796982421875
17,0.01800908203125
17.00390625,0.018198046875
17.0078125,0.018495703125
17.01171875,0.0188171875
17.015625,0.01907041015625
17.01953125,0.0191947265625
17.0234375,0.0191822265625
17.02734375,0.019069140625
17.03125,0.01890654296875
17.03515625,0.01873017578125
17.0390625,0.01854814453125
17.04296875,0.01834921875
17.046875,0.01812763671875
17.05078125,0.01790322265625
17.0546875,0.01772451171875
17.05859375,0.01764990234375
17.0625,0.01771796875
17.06640625,0.01792431640625
17.0703125,0.01821904296875
17.07421875,0.01852763671875
17.078125,0.01878095703125
17.08203125,0.0189380859375
17.0859375,0.01899365234375
17.08984375,0.01896943359375
17.09375,0.0188990234375
17.09765625,0.01881396484375
17.1015625,0.0187359375
17.10546875,0.01867802734375
17.109375,0.018648046875
17.11328125,0.01865498046875
17.1171875,0.01870634765625
17.12109375,0.018801953125
17.125,0.018925390625
17.12890625,0.0190423828125
17.1328125,0.01911181640625
17.13671875,0.0191021484375
17.140625,0.01900888671875
17.14453125,0.01886064453125
17.1484375,0.01871044921875
17.15234375,0.0186140625
17.15625,0.0186072265625
17.16015625,0.01868994140625
17.1640625,0.01882978515625
17.16796875,0.0189794921875
17.171875,0.01909814453125
17.17578125,0.01916630859375
17.1796875,0.01918505859375
17.18359375,0.019165625
17.1875,0.01911953125
17.19140625,0.019053515625
17.1953125,0.01897001953125
17.19921875,0.018871484375
17.203125,0.0187671875
17.20703125,0.01867880859375
17.2109375,0.018639453125
17.21484375,0.01868271484375
17.21875,0.0188267578125
17.22265625,0.019059765625
17.2265625,0.01933662109375
17.23046875,0.019588671875
17.234375,0.01974599609375
17.23828125,0.019766015625
17.2421875,0.01965615234375
17.24609375,0.01947255859375
17.25,0.01929462890625
17.25390625,0.019185546875
17.2578125,0.019167578125
17.26171875,0.01922216796875
17.265625,0.01931201171875
17.26953125,0.01940634765625
17.2734375,0.0194935546875
17.27734375,0.01957333984375
17.28125,0.01964189453125
17.28515625,0.019680078125
17.2890625,0.01966025390625
17.29296875,0.01956337890625
17.296875,0.01939599609375
17.30078125,0.01919267578125
17.3046875,0.0190013671875
17.30859375,0.01886416015625
17.3125,0.0188005859375
17.31640625,0.01880634765625
17.3203125,0.01885673828125
17.32421875,0.01891689453125
17.328125,0.018952734375
17.33203125,0.01894228515625
17.3359375,0.0188841796875
17.33984375,0.0187984375
17.34375,0.01871796875
17.34765625,0.0186755859375
17.3515625,0.01868818359375
17.35546875,0.01875029296875
17.359375,0.01883701171875
17.36328125,0.018915625
17.3671875,0.0189611328125
17.37109375,0.0189650390625
17.375,0.01893759765625
17.37890625,0.0189044921875
17.3828125,0.01889365234375
17.38671875,0.01892216796875
17.390625,0.01898447265625
17.39453125,0.01905322265625
17.3984375,0.01909150390625
17.40234375,0.01906943359375
17.40625,0.0189787109375
17.41015625,0.018833203125
17.4140625,0.0186654296875
17.41796875,0.01851552734375
17.421875,0.01842158203125
17.42578125,0.01840869140625
17.4296875,0.01847998046875
17.43359375,0.01861103515625
17.4375,0.018753515625
17.44140625,0.01884853515625
17.4453125,0.01885068359375
17.44921875,0.0187505859375
17.453125,0.01858525390625
17.45703125,0.01842373046875
17.4609375,0.01833525390625
17.46484375,0.01835439453125
17.46875,0.0184654296875
17.47265625,0.01861162109375
17.4765625,0.01872578125
17.48046875,0.018758203125
17.484375,0.01869384765625
17.48828125,0.018550390625
17.4921875,0.0183619140625
17.49609375,0.01816708984375
17.5,0.0180009765625
17.50390625,0.01788369140625
17.5078125,0.01779453125
17.51171875,0.0176400390625
17.515625,0.01724931640625
17.51953125,0.01641787109375
