0,0.00019009
0.0039063,0.0006544
0.0078125,-0.0007865
0.011719,0.00032258
0.015625,0.00013535
0.019531,-0.0004357
0.023438,-0.00012349
0.027344,0.00015351
0.03125,0.0012998
0.035156,0.0010158
0.039063,-0.00043834
0.042969,0.0011143
0.046875,0.00029993
0.050781,2.2843e-05
0.054688,0.00029853
0.058594,-2.7027e-05
0.0625,4.8335e-07
0.066406,0.00056995
0.070313,0.00054065
0.074219,0.0005429
0.078125,0.00027831
0.082031,-0.00038798
0.085938,0.00028942
0.089844,0.00060845
0.09375,0.00020149
0.097656,0.00039235
0.10156,0.00028325
0.10547,-7.9695e-05
0.10938,0.00013357
0.11328,-0.00024688
0.11719,0.00034622
0.12109,-0.00037431
0.125,-0.00034905
0.12891,-0.00026101
0.13281,-0.0010204
0.13672,0.00052395
0.14063,0.00012543
0.14453,-0.00026028
0.14844,0.00048897
0.15234,-0.00060105
0.15625,-3.1788e-05
0.16016,-8.126e-05
0.16406,0.00011531
0.16797,0.00011029
0.17188,-0.00030862
0.17578,-1.3867e-05
0.17969,-5.882e-05
0.18359,0.00022676
0.1875,0.00039745
0.19141,0.00040755
0.19531,-0.00028889
0.19922,4.1399e-05
0.20313,-0.0004197
0.20703,-0.00038822
0.21094,1.7532e-06
0.21484,0.0005488
0.21875,-0.00025893
0.22266,0.00015225
0.22656,-5.2255e-05
0.23047,0.00042562
0.23438,-0.00035599
0.23828,3.4817e-05
0.24219,0.0002103
0.24609,0.00039525
0.25,0.00054475
0.25391,2.4459e-05
0.25781,-0.0005358
0.26172,-0.00027383
0.26563,-0.00039531
0.26953,0.0007896
0.27344,-0.00030007
0.27734,0.00011804
0.28125,-0.00029909
0.28516,-1.348e-05
0.28906,-0.00069385
0.29297,-0.0010009
0.29688,-0.0010661
0.30078,-0.00042164
0.30469,-0.0006641
0.30859,-0.00066155
0.3125,-7.405e-05
0.31641,-0.00045678
0.32031,-0.00047914
0.32422,1.6297e-05
0.32813,-0.000831
0.33203,-0.00030474
0.33594,-0.00026033
0.33984,-0.00064465
0.34375,-0.00048344
0.34766,-0.00097275
0.35156,-0.0009687
0.35547,-0.00053075
0.35938,-0.00032015
0.36328,0.00032949
0.36719,-0.0008288
0.37109,-0.00053205
0.375,-0.00062805
0.37891,-0.001278
0.38281,-0.000742
0.38672,-0.0012127
0.39063,-0.00027488
0.39453,-0.00088485
0.39844,-0.0005405
0.40234,-0.000778
0.40625,-0.00048897
0.41016,-0.00081605
0.41406,-0.00043121
0.41797,-0.00033537
0.42188,2.311e-05
0.42578,-0.0006328
0.42969,-0.0013038
0.43359,-0.000834
0.4375,-5.5575e-05
0.44141,-0.00091795
0.44531,-0.00020703
0.44922,-0.0005101
0.45313,-4.9283e-05
0.45703,-0.0012492
0.46094,-0.00062165
0.46484,-0.00097425
0.46875,0.00048388
0.47266,-0.00025128
0.47656,-5.457e-05
0.48047,-0.0009136
0.48438,-0.00069945
0.48828,-0.0006217
0.49219,-0.00012799
0.49609,-0.00060795
0.5,-0.00026031
0.50391,-0.0012389
0.50781,-0.00064885
0.51172,-0.00082685
0.51563,-0.0011022
0.51953,-0.00036741
0.52344,-0.00044175
0.52734,-0.0005176
0.53125,-0.00098585
0.53516,-0.00010122
0.53906,-0.00036481
0.54297,-0.00058735
0.54688,-0.00047021
0.55078,-0.0005699
0.55469,-0.0010958
0.55859,-0.00057765
0.5625,-0.0007702
0.56641,-0.000823
0.57031,-0.00088805
0.57422,-0.00067255
0.57813,-0.0011983
0.58203,-0.00015605
0.58594,-0.00031928
0.58984,-0.00051585
0.59375,-0.0005269
0.59766,-0.0008037
0.60156,-0.0001694
0.60547,-0.00058475
0.60938,-0.00079645
0.61328,-6.8375e-05
0.61719,-0.00062325
0.62109,-0.00074575
0.625,-0.00063335
0.62891,-0.00082215
0.63281,-0.0009141
0.63672,0.00037621
0.64063,6.768e-05
0.64453,-0.00040954
0.64844,-0.0009614
0.65234,-0.0008188
0.65625,-0.0005688
0.66016,-0.00021945
0.66406,-0.0009641
0.66797,-0.0013132
0.67188,-0.0010009
0.67578,-0.00037211
0.67969,-0.00035413
0.68359,-0.00033473
0.6875,-0.00054065
0.69141,-0.00042751
0.69531,-0.0006567
0.69922,-0.00017861
0.70313,-0.0009604
0.70703,-0.00031564
0.71094,-0.00077685
0.71484,-0.00059835
0.71875,-0.00029006
0.72266,-0.00012499
0.72656,-0.0008943
0.73047,-5.8935e-05
0.73438,-0.00027464
0.73828,-0.0005333
0.74219,-0.0005781
0.74609,-0.0005849
0.75,-0.00061385
0.75391,-0.00049725
0.75781,-0.00048632
0.76172,-0.00021198
0.76563,3.5561e-05
0.76953,-0.00034005
0.77344,-0.00058025
0.77734,-0.00028589
0.78125,-0.00044294
0.78516,-0.0008729
0.78906,-0.00017492
0.79297,-0.00040404
0.79688,-0.00046654
0.80078,-0.00033285
0.80469,-0.00042223
0.80859,-0.00084715
0.8125,-0.00057285
0.81641,-0.00057105
0.82031,-0.00071435
0.82422,6.0185e-05
0.82813,-0.00085175
0.83203,-0.000718
0.83594,-0.00079945
0.83984,-0.00095955
0.84375,-0.0006062
0.84766,-0.0006281
0.85156,1.5659e-05
0.85547,-0.0006101
0.85938,-0.00089775
0.86328,4.4627e-05
0.86719,-8.5465e-05
0.87109,-0.0005997
0.875,-0.0010435
0.87891,-0.0006573
0.88281,-0.00054345
0.88672,-0.00038047
0.89063,-0.00056345
0.89453,-0.00031112
0.89844,-0.00032899
0.90234,-0.00091085
0.90625,-0.00080525
0.91016,-0.0007336
0.91406,-0.0006533
0.91797,-0.00059075
0.92188,-0.00047833
0.92578,-0.00156
0.92969,-0.0006565
0.93359,-5.9695e-05
0.9375,-0.00087745
0.94141,-0.00016912
0.94531,-0.00037289
0.94922,-0.0005045
0.95313,-0.00042807
0.95703,-0.0010448
0.96094,-0.00051925
0.96484,8.223e-05
0.96875,-0.00044245
0.97266,-0.00045276
0.97656,-0.0007173
0.98047,-0.00046184
0.98438,-0.00036678
0.98828,-0.00030099
0.99219,-0.00058955
0.99609,-0.00054795
1,0.00024648
1.0039,-0.0012686
1.0078,0.00032088
1.0117,-0.00034247
1.0156,-0.00010215
1.0195,-0.0010399
1.0234,-0.0006596
1.0273,-0.0005525
1.0313,-0.00031006
1.0352,-0.001055
1.0391,-0.00030016
1.043,-0.000895
1.0469,-0.00043989
1.0508,-0.00022957
1.0547,-0.00034324
1.0586,-7.741e-05
1.0625,-0.00010805
1.0664,-0.0006984
1.0703,-0.00038135
1.0742,-0.00080885
1.0781,-0.00094425
1.082,-0.00015244
1.0859,-0.00048372
1.0898,-0.0005096
1.0938,-0.00017547
1.0977,-0.0002933
1.1016,-0.00038154
1.1055,-5.9585e-05
1.1094,-0.00016385
1.1133,-0.00039563
1.1172,-0.0007124
1.1211,-0.0006899
1.125,-3.4544e-05
1.1289,-0.0010277
1.1328,-0.00047195
1.1367,-0.0011588
1.1406,-0.00011424
1.1445,-0.00017343
1.1484,-0.00047866
1.1523,-0.0005039
1.1563,-0.0013572
1.1602,-0.00027166
1.1641,-0.0012505
1.168,-0.001292
1.1719,-0.00043866
1.1758,-0.00079525
1.1797,-0.00030606
1.1836,-0.00020342
1.1875,-0.00013134
1.1914,-0.00067255
1.1953,-0.00026551
1.1992,-0.0003884
1.2031,-0.00013509
1.207,-0.00024411
1.2109,-0.00012525
1.2148,-0.00049942
1.2188,-0.0005143
1.2227,-0.00011366
1.2266,-0.0012271
1.2305,-0.00066165
1.2344,-0.0009423
1.2383,-0.0006425
1.2422,-0.00029537
1.2461,-0.00025011
1.25,-0.00091335
1.2539,-0.00072465
1.2578,-0.00050315
1.2617,-0.0006403
1.2656,-0.00041251
1.2695,-0.00036186
1.2734,-0.0008219
1.2773,-0.00055255
1.2813,-0.0012466
1.2852,-9.364e-05
1.2891,-0.00072685
1.293,-0.0009344
1.2969,-0.00060145
1.3008,-0.0010194
1.3047,-0.00052545
1.3086,-0.0007216
1.3125,0.00024046
1.3164,-0.00013273
1.3203,-0.0014226
1.3242,-0.00038707
1.3281,-0.0010402
1.332,-0.00063785
1.3359,-0.00048719
1.3398,-0.0002678
1.3438,-0.0005963
1.3477,0.00011575
1.3516,-0.000527
1.3555,-0.00013748
1.3594,9.0675e-05
1.3633,-1.619e-05
1.3672,0.00033911
1.3711,0.00018544
1.375,-0.00019146
1.3789,-0.0005592
1.3828,0.00071855
1.3867,-0.00017109
1.3906,6.627e-05
1.3945,0.00022535
1.3984,7.2525e-05
1.4023,-0.00027414
1.4063,-0.00010302
1.4102,3.373e-05
1.4141,0.0006118
1.418,-0.00021069
1.4219,0.00036974
1.4258,0.00019579
1.4297,-3.5804e-06
1.4336,-0.00030177
1.4375,-3.3789e-05
1.4414,3.3115e-05
1.4453,-0.00045676
1.4492,0.00013059
1.4531,-0.00022823
1.457,2.837e-05
1.4609,0.0001791
1.4648,-0.00026109
1.4688,-4.3471e-05
1.4727,0.00018441
1.4766,-0.0005828
1.4805,0.00044177
1.4844,0.00094495
1.4883,0.00044127
1.4922,5.838e-06
1.4961,0.00028468
1.5,-0.00021817
1.5039,0.000825
1.5078,0.0005032
1.5117,0.00045393
1.5156,-0.00013401
1.5195,0.00028474
1.5234,-3.2333e-05
1.5273,4.7921e-05
1.5313,-4.8965e-05
1.5352,-0.00021269
1.5391,-0.00017085
1.543,7.899e-05
1.5469,-0.00044379
1.5508,0.00037484
1.5547,0.00012009
1.5586,0.00040896
1.5625,0.00025595
1.5664,0.00033412
1.5703,-0.00036514
1.5742,-0.00019962
1.5781,7.1295e-06
1.582,0.00020955
1.5859,0.0005758
1.5898,7.922e-05
1.5938,0.00063085
1.5977,0.00035348
1.6016,0.00059865
1.6055,0.00022466
1.6094,-5.72e-05
1.6133,-0.00035357
1.6172,0.00022114
1.6211,0.00045312
1.625,5.9875e-05
1.6289,-2.6402e-05
1.6328,5.7915e-05
1.6367,-0.00021943
1.6406,-7.518e-06
1.6445,9.7965e-05
1.6484,0.00017052
1.6523,0.00012371
1.6563,0.0003564
1.6602,0.00017665
1.6641,0.0007808
1.668,0.00025319
1.6719,0.00078375
1.6758,-0.00010946
1.6797,0.00032988
1.6836,4.704e-05
1.6875,0.00034557
1.6914,0.0003375
1.6953,-0.0006513
1.6992,-0.00035409
1.7031,-0.00040169
1.707,0.00024195
1.7109,0.00061235
1.7148,-2.7807e-05
1.7188,0.00037435
1.7227,0.00028449
1.7266,-0.00027161
1.7305,0.00025096
1.7344,-0.00014676
1.7383,0.0006597
1.7422,0.00011194
1.7461,0.00069855
1.75,-3.3567e-05
1.7539,0.00032483
1.7578,9.8895e-05
1.7617,-0.0005847
1.7656,-0.00020633
1.7695,0.00036598
1.7734,0.00013309
1.7773,-0.00024651
1.7813,-8.094e-05
1.7852,0.00021857
1.7891,-0.0002289
1.793,0.00046322
1.7969,-0.00010663
1.8008,0.00076455
1.8047,-0.00025006
1.8086,0.00020828
1.8125,-0.00039562
1.8164,-0.00011145
1.8203,-6.457e-05
1.8242,0.00028729
1.8281,0.00047868
1.832,0.00025189
1.8359,1.3163e-05
1.8398,0.00043162
1.8438,0.0004229
1.8477,0.00017984
1.8516,0.00033726
1.8555,0.00028136
1.8594,-0.000211
1.8633,0.00041045
1.8672,-8.7095e-05
1.8711,-6.7875e-05
1.875,0.00020384
1.8789,2.301e-05
1.8828,7.171e-05
1.8867,0.00031444
1.8906,0.00046242
1.8945,1.6573e-05
1.8984,0.00020407
1.9023,1.2427e-05
1.9063,0.00019079
1.9102,0.00027925
1.9141,-8.248e-05
1.918,0.00024032
1.9219,0.00035819
1.9258,0.00017694
1.9297,0.00075285
1.9336,-7.644e-05
1.9375,-0.00012265
1.9414,-0.00047982
1.9453,0.00046235
1.9492,0.00044788
1.9531,0.00011216
1.957,0.000455
1.9609,0.00019756
1.9648,0.00023014
1.9688,0.00016275
1.9727,0.00027571
1.9766,0.00015588
1.9805,0.0011075
1.9844,-0.00028671
1.9883,-0.0005255
1.9922,-0.00026948
1.9961,-0.00025061
2,-1.7293e-05
2.0039,7.465e-05
2.0078,5.4015e-05
2.0117,0.0003196
2.0156,0.00026354
2.0195,0.00039044
2.0234,0.00075345
2.0273,0.00055735
2.0313,-0.00032921
2.0352,-0.00070045
2.0391,0.00043929
2.043,-0.0005319
2.0469,0.00013695
2.0508,0.00012198
2.0547,0.00089315
2.0586,7.836e-05
2.0625,-7.7645e-05
2.0664,0.00018668
2.0703,0.0001949
2.0742,0.00013992
2.0781,-9.2025e-05
2.082,-0.00030244
2.0859,0.00024531
2.0898,-0.00034133
2.0938,-0.00023389
2.0977,0.00059905
2.1016,-2.0312e-05
2.1055,8.1095e-05
2.1094,0.00045519
2.1133,3.907e-05
2.1172,0.0005163
2.1211,3.3943e-05
2.125,0.00051235
2.1289,0.00037001
2.1328,6.2285e-05
2.1367,-0.00017877
2.1406,-0.00024966
2.1445,1.9028e-05
2.1484,-4.1434e-05
2.1523,-2.9468e-05
2.1563,0.00046549
2.1602,1.5139e-05
2.1641,0.0005264
2.168,-6.5545e-05
2.1719,0.00046529
2.1758,-6.5075e-05
2.1797,0.00018002
2.1836,0.00045957
2.1875,-2.9965e-05
2.1914,-3.7482e-05
2.1953,0.0008271
2.1992,0.00045563
2.2031,-3.3732e-05
2.207,0.00034734
2.2109,-1.0363e-05
2.2148,0.00036658
2.2188,0.00061915
2.2227,-0.00044586
2.2266,0.00048858
2.2305,0.0006434
2.2344,0.00014717
2.2383,0.00074965
2.2422,0.0001887
2.2461,-0.00030243
2.25,-0.00064025
2.2539,1.6004e-05
2.2578,0.00038272
2.2617,0.00023771
2.2656,0.00026677
2.2695,-8.6355e-05
2.2734,0.00016949
2.2773,-0.0004557
2.2813,-0.00013716
2.2852,-0.00014975
2.2891,0.00032932
2.293,0.00014274
2.2969,-0.00026196
2.3008,0.00014016
2.3047,-0.00010393
2.3086,-9.927e-05
2.3125,0.00043799
2.3164,0.00016728
2.3203,0.0002613
2.3242,0.00042652
2.3281,0.00017525
2.332,0.00031242
2.3359,0.00037727
2.3398,0.00057995
2.3438,0.00037301
2.3477,0.0007451
2.3516,0.00029088
2.3555,0.00029484
2.3594,0.00093285
2.3633,0.00016324
2.3672,0.00035102
2.3711,0.00068625
2.375,0.00042575
2.3789,0.00088405
2.3828,0.00076835
2.3867,0.0005197
2.3906,0.00015229
2.3945,0.00063495
2.3984,-4.8801e-05
2.4023,0.00053185
2.4063,0.0007374
2.4102,0.00053245
2.4141,0.00076985
2.418,0.001174
2.4219,0.00076475
2.4258,0.00050825
2.4297,0.00061045
2.4336,0.0005026
2.4375,-0.00013968
2.4414,0.0001596
2.4453,0.00073145
2.4492,0.00028252
2.4531,0.0005067
2.457,-5.349e-05
2.4609,0.00032272
2.4648,0.0005057
2.4688,-0.00019608
2.4727,0.00040108
2.4766,0.00021002
2.4805,-5.788e-05
2.4844,0.00026383
2.4883,-0.00038984
2.4922,-0.00047011
2.4961,-0.00013589
2.5,-7.6045e-05
2.5039,-0.00014942
2.5078,-0.00035419
2.5117,0.00034992
2.5156,-0.0003203
2.5195,0.00028105
2.5234,0.0005217
2.5273,0.00024504
2.5313,0.00028038
2.5352,0.00011339
2.5391,-0.00027975
2.543,0.00022488
2.5469,0.0005759
2.5508,0.0008476
2.5547,7.8975e-05
2.5586,-0.00034568
2.5625,0.00028662
2.5664,0.00035796
2.5703,0.00014115
2.5742,-0.00018814
2.5781,0.00093135
2.582,-0.0006203
2.5859,3.1553e-05
2.5898,-0.00025896
2.5938,-2.1995e-05
2.5977,0.00030893
2.6016,0.00023992
2.6055,-6.2745e-05
2.6094,0.00046453
2.6133,0.00041422
2.6172,0.00042815
2.6211,5.1755e-05
2.625,0.0005717
2.6289,0.00042854
2.6328,0.0010722
2.6367,0.0005497
2.6406,0.00057155
2.6445,0.00017191
2.6484,-0.00030867
2.6523,1.2733e-05
2.6563,-0.00012353
2.6602,-5.2425e-05
2.6641,0.00034605
2.668,-4.625e-05
2.6719,-0.00016857
2.6758,-3.0933e-06
2.6797,7.679e-05
2.6836,0.00027189
2.6875,-0.00021153
2.6914,0.00024177
2.6953,0.00016653
2.6992,0.00061805
2.7031,8.226e-05
2.707,0.00011152
2.7109,-0.00026041
2.7148,-0.00034544
2.7188,0.00024525
2.7227,4.3174e-05
2.7266,0.00031202
2.7305,-0.00017383
2.7344,0.0008259
2.7383,0.0002007
2.7422,0.00052785
2.7461,7.105e-05
2.75,8.3105e-05
2.7539,0.00037333
2.7578,0.00031783
2.7617,-0.00027781
2.7656,-0.00042235
2.7695,-0.00026545
2.7734,-0.0003757
2.7773,0.00014526
2.7813,-2.4686e-05
2.7852,-1.4208e-05
2.7891,-0.0003695
2.793,0.0003849
2.7969,0.00026406
2.8008,7.724e-05
2.8047,0.00046974
2.8086,-0.00020164
2.8125,0.00025188
2.8164,0.0002266
2.8203,0.00022627
2.8242,-0.0001541
2.8281,0.00022141
2.832,-7.349e-05
2.8359,-0.00020551
2.8398,-0.00031081
2.8438,0.00048541
2.8477,-0.00017571
2.8516,6.8075e-05
2.8555,-0.00029207
2.8594,3.5302e-05
2.8633,-0.00099945
2.8672,-0.00024126
2.8711,-0.00036478
2.875,-0.00022527
2.8789,5.047e-05
2.8828,3.3511e-06
2.8867,0.0007995
2.8906,-9.456e-05
2.8945,1.6903e-05
2.8984,-0.00044988
2.9023,-6.3065e-05
2.9063,-0.00036682
2.9102,0.00011578
2.9141,0.0004032
2.918,0.00023951
2.9219,-0.00015524
2.9258,-0.00048408
2.9297,0.000615
2.9336,0.000837
2.9375,0.00017291
2.9414,-0.00020112
2.9453,0.00058645
2.9492,-4.0722e-05
2.9531,-1.298e-06
2.957,0.00046535
2.9609,-0.00035636
2.9648,-0.00057865
2.9688,0.00024409
2.9727,0.00022453
2.9766,0.00011085
2.9805,0.0002541
2.9844,0.00046816
2.9883,0.00043923
2.9922,-9.3625e-05
2.9961,0.0004029
3,0.00018303
3.0039,-5.544e-05
3.0078,-0.00029858
3.0117,0.00035381
3.0156,6.216e-06
3.0195,0.00015882
3.0234,-0.0001236
3.0273,-0.00037749
3.0313,0.00024133
3.0352,0.00016246
3.0391,0.00060605
3.043,0.00045955
3.0469,0.00054235
3.0508,-9.795e-05
3.0547,-0.00016304
3.0586,-0.00027652
3.0625,0.00035197
3.0664,0.0011615
3.0703,0.00042572
3.0742,-0.00011739
3.0781,0.00043714
3.082,-0.00026944
3.0859,-0.00037968
3.0898,0.0003792
3.0938,-0.00014316
3.0977,0.00025034
3.1016,0.00063895
3.1055,0.00028111
3.1094,0.00046153
3.1133,-0.0004416
3.1172,0.00035712
3.1211,0.0008822
3.125,0.00032474
3.1289,-0.00040415
3.1328,7.079e-05
3.1367,-4.0441e-05
3.1406,0.00025826
3.1445,0.00025287
3.1484,0.00023938
3.1523,-3.4353e-05
3.1563,-0.0001092
3.1602,-9.0895e-05
3.1641,0.00043441
3.168,-0.00051295
3.1719,7.04e-05
3.1758,0.00023382
3.1797,-0.00010126
3.1836,0.00029051
3.1875,9.2485e-05
3.1914,-0.00021393
3.1953,0.00017806
3.1992,3.0871e-05
3.2031,-1.4155e-05
3.207,-0.00011551
3.2109,0.00016324
3.2148,-0.0005054
3.2188,1.1565e-05
3.2227,-3.7046e-05
3.2266,-0.00016896
3.2305,0.00037676
3.2344,-0.00012652
3.2383,0.00030803
3.2422,0.00044584
3.2461,3.2502e-05
3.25,0.00017777
3.2539,0.00030073
3.2578,4.2381e-05
3.2617,0.00025806
3.2656,-0.00038442
3.2695,0.00045079
3.2734,-0.00029157
3.2773,-0.0005822
3.2813,0.00056615
3.2852,7.0705e-05
3.2891,0.00026789
3.293,-6.576e-06
3.2969,-0.00023197
3.3008,-0.00095585
3.3047,0.00035107
3.3086,2.7621e-05
3.3125,6.0985e-05
3.3164,0.00027855
3.3203,-0.0003612
3.3242,-0.0001128
3.3281,0.00055305
3.332,0.00035927
3.3359,-0.00030495
3.3398,-0.00062955
3.3438,-4.932e-05
3.3477,0.00023285
3.3516,0.000495
3.3555,0.00019841
3.3594,-0.00023009
3.3633,0.00027409
3.3672,-0.00025164
3.3711,-0.00018165
3.375,-7.8995e-05
3.3789,-0.00028914
3.3828,4.2935e-05
3.3867,-0.00018602
3.3906,2.4937e-05
3.3945,-4.3242e-05
3.3984,-2.9407e-05
3.4023,-6.5685e-05
3.4063,0.00054775
3.4102,0.00033001
3.4141,0.00014081
3.418,-0.00039066
3.4219,-0.00043803
3.4258,-0.00055045
3.4297,0.0010696
3.4336,0.00049273
3.4375,0.00023676
3.4414,-0.0002034
3.4453,-0.00026888
3.4492,0.0003273
3.4531,0.0006868
3.457,-0.00046352
3.4609,-2.1269e-05
3.4648,0.00010968
3.4688,-0.00056445
3.4727,0.00043565
3.4766,-1.1956e-05
3.4805,0.00080545
3.4844,-1.5347e-05
3.4883,0.00026006
3.4922,-0.00029642
3.4961,-0.0001209
3.5,-0.00031884
3.5039,0.00023085
3.5078,0.0005543
3.5117,-0.00010971
3.5156,0.00026355
3.5195,-5.887e-05
3.5234,0.00016505
3.5273,0.00055945
3.5313,0.00018399
3.5352,-0.0002231
3.5391,-0.00016076
3.543,7.7705e-05
3.5469,6.282e-05
3.5508,-0.00018358
3.5547,0.00018003
3.5586,0.00056135
3.5625,2.6213e-05
3.5664,4.6331e-05
3.5703,-0.0006569
3.5742,-0.00015289
3.5781,-0.00037592
3.582,-2.6208e-05
3.5859,0.0002907
3.5898,0.0006413
3.5938,0.00074025
3.5977,6.667e-05
3.6016,-2.9769e-06
3.6055,0.00039728
3.6094,0.00027459
3.6133,0.00036184
3.6172,0.00035711
3.6211,-0.00044631
3.625,0.00026986
3.6289,5.4625e-05
3.6328,-0.00016972
3.6367,-0.00013371
3.6406,0.00057435
3.6445,-0.00015935
3.6484,-0.00030827
3.6523,0.00020514
3.6563,0.0008402
3.6602,0.00013904
3.6641,0.00024001
3.668,-0.00020042
3.6719,0.0007219
3.6758,0.00017116
3.6797,0.00031046
3.6836,-0.00021694
3.6875,0.00042017
3.6914,0.00025682
3.6953,-0.00028648
3.6992,0.00014003
3.7031,-2.9979e-05
3.707,0.0001703
3.7109,4.4341e-05
3.7148,6.6065e-05
3.7188,-0.00023258
3.7227,1.6939e-05
3.7266,0.00040047
3.7305,0.00074475
3.7344,-0.00028276
3.7383,0.00096975
3.7422,0.00067275
3.7461,0.00019846
3.75,3.8205e-05
3.7539,-9.8345e-05
3.7578,0.0004435
3.7617,-0.00010051
3.7656,-2.644e-05
3.7695,0.00043788
3.7734,0.00026669
3.7773,0.00041726
3.7813,0.0002694
3.7852,-5.444e-05
3.7891,-9.0625e-05
3.793,0.000384
3.7969,-0.00011749
3.8008,0.0005594
3.8047,0.00043801
3.8086,0.00027379
3.8125,0.0001796
3.8164,0.00030675
3.8203,0.0014176
3.8242,0.00012128
3.8281,-0.00039914
3.832,0.0008203
3.8359,0.00035306
3.8398,-9.6255e-05
3.8438,0.0010528
3.8477,0.00031426
3.8516,0.00021275
3.8555,-0.00017864
3.8594,-0.00029189
3.8633,-0.00054935
3.8672,-7.757e-05
3.8711,-0.00029861
3.875,0.00031021
3.8789,-1.8714e-05
3.8828,0.00073465
3.8867,0.0006599
3.8906,0.00019868
3.8945,5.168e-05
3.8984,0.00056475
3.9023,-0.00024751
3.9063,0.00039219
3.9102,-8.887e-05
3.9141,-4.124e-07
3.918,-0.00010113
3.9219,0.0003383
3.9258,-0.00013896
3.9297,-0.0002377
3.9336,0.00033323
3.9375,-1.9109e-05
3.9414,0.0002428
3.9453,-3.2209e-05
3.9492,0.00016238
3.9531,-0.0008605
3.957,0.00019967
3.9609,0.00069065
3.9648,0.00041214
3.9688,0.00037959
3.9727,-1.6496e-05
3.9766,0.00013799
3.9805,0.00016233
3.9844,0.00011248
3.9883,-0.00020772
3.9922,-2.4008e-05
3.9961,5.869e-05
4,-2.9072e-05
4.0039,0.00045217
4.0078,0.001061
4.0117,-0.00030491
4.0156,0.00020313
4.0195,-0.00035762
4.0234,0.00061055
4.0273,0.00065045
4.0313,-0.000431
4.0352,0.000849
4.0391,-0.00021904
4.043,0.00024363
4.0469,0.0005477
4.0508,0.00020526
4.0547,0.00095905
4.0586,0.0011157
4.0625,0.00018705
4.0664,-0.0005414
4.0703,-3.2926e-06
4.0742,-0.00018239
4.0781,-0.00016003
4.082,-0.00029135
4.0859,0.00013813
4.0898,0.00086445
4.0938,-0.00012064
4.0977,4.593e-05
4.1016,0.0005663
4.1055,0.00058525
4.1094,0.00032421
4.1133,0.00050665
4.1172,0.00044131
4.1211,-1.0817e-05
4.125,0.00026951
4.1289,9.0365e-06
4.1328,-0.00020457
4.1367,0.00033655
4.1406,0.00013251
4.1445,3.6416e-05
4.1484,0.00019792
4.1523,0.00043657
4.1563,0.00022162
4.1602,0.00015114
4.1641,0.00018529
4.168,0.00011132
4.1719,-0.00017333
4.1758,0.00038413
4.1797,0.00060655
4.1836,-8.083e-05
4.1875,0.00078745
4.1914,4.1476e-05
4.1953,1.678e-05
4.1992,-0.00021353
4.2031,-0.00017442
4.207,-0.00022966
4.2109,0.0002322
4.2148,0.000669
4.2188,0.00028587
4.2227,0.00039505
4.2266,0.000561
4.2305,-0.00080265
4.2344,1.7966e-05
4.2383,0.00020053
4.2422,0.00033064
4.2461,-0.00038012
4.25,-0.00026808
4.2539,0.00037435
4.2578,6.07e-05
4.2617,0.00030478
4.2656,-0.00022003
4.2695,-0.00043893
4.2734,0.00044281
4.2773,0.00065295
4.2813,0.00089135
4.2852,-0.00011829
4.2891,8.1915e-05
4.293,0.00018108
4.2969,0.0008459
4.3008,0.00080805
4.3047,0.0016592
4.3086,0.0008506
4.3125,0.00091855
4.3164,0.0017724
4.3203,0.0022785
4.3242,0.0017182
4.3281,0.0016851
4.332,0.0021935
4.3359,0.0017632
4.3398,0.0024245
4.3438,0.0027682
4.3477,0.0025901
4.3516,0.0018586
4.3555,0.0023503
4.3594,0.0024305
4.3633,0.0031713
4.3672,0.0028467
4.3711,0.002499
4.375,0.0029814
4.3789,0.0021504
4.3828,0.002398
4.3867,0.0030207
4.3906,0.0030517
4.3945,0.0027787
4.3984,0.0026965
4.4023,0.0023214
4.4063,0.0027993
4.4102,0.00225
4.4141,0.0027498
4.418,0.002646
4.4219,0.002945
4.4258,0.0023862
4.4297,0.0027574
4.4336,0.002812
4.4375,0.0022169
4.4414,0.0025956
4.4453,0.0031121
4.4492,0.0025934
4.4531,0.0024487
4.457,0.0027203
4.4609,0.0024596
4.4648,0.0027086
4.4688,0.0024975
4.4727,0.0025308
4.4766,0.0026926
4.4805,0.0030055
4.4844,0.0026806
4.4883,0.0031037
4.4922,0.0018058
4.4961,0.0023659
4.5,0.0026074
4.5039,0.002224
4.5078,0.00206
4.5117,0.0027195
4.5156,0.0027099
4.5195,0.0025921
4.5234,0.0026322
4.5273,0.002193
4.5313,0.0023369
4.5352,0.0024883
4.5391,0.0022956
4.543,0.0026682
4.5469,0.0033986
4.5508,0.0024023
4.5547,0.0028095
4.5586,0.0022175
4.5625,0.0030527
4.5664,0.0022263
4.5703,0.0026298
4.5742,0.0023267
4.5781,0.0027224
4.582,0.00255
4.5859,0.0025422
4.5898,0.0036157
4.5938,0.002365
4.5977,0.0025826
4.6016,0.0035549
4.6055,0.0022049
4.6094,0.0028082
4.6133,0.0022344
4.6172,0.0029823
4.6211,0.0027369
4.625,0.0028543
4.6289,0.0025265
4.6328,0.002712
4.6367,0.0031447
4.6406,0.001817
4.6445,0.0020393
4.6484,0.0027567
4.6523,0.0023696
4.6563,0.0024869
4.6602,0.0020543
4.6641,0.0022581
4.668,0.002433
4.6719,0.0023199
4.6758,0.0022725
4.6797,0.0024322
4.6836,0.0022503
4.6875,0.0030603
4.6914,0.0022395
4.6953,0.0032363
4.6992,0.0024671
4.7031,0.0020925
4.707,0.0023928
4.7109,0.002946
4.7148,0.0029907
4.7188,0.0026731
4.7227,0.0027144
4.7266,0.00283
4.7305,0.0020814
4.7344,0.0023808
4.7383,0.0019276
4.7422,0.002404
4.7461,0.0028869
4.75,0.0027942
4.7539,0.0033403
4.7578,0.0025839
4.7617,0.0017602
4.7656,0.0031224
4.7695,0.0029854
4.7734,0.0023353
4.7773,0.0026293
4.7813,0.0028338
4.7852,0.0026992
4.7891,0.0028128
4.793,0.0025301
4.7969,0.0025611
4.8008,0.0026127
4.8047,0.0023096
4.8086,0.0030976
4.8125,0.0025987
4.8164,0.0028364
4.8203,0.0022846
4.8242,0.0021979
4.8281,0.0025384
4.832,0.002477
4.8359,0.0029886
4.8398,0.0027832
4.8438,0.0027631
4.8477,0.0020622
4.8516,0.0022286
4.8555,0.0026364
4.8594,0.0024344
4.8633,0.0030063
4.8672,0.0030198
4.8711,0.0023398
4.875,0.0028584
4.8789,0.00305
4.8828,0.0026799
4.8867,0.0031503
4.8906,0.0029593
4.8945,0.0026622
4.8984,0.0028936
4.9023,0.0026441
4.9063,0.0024172
4.9102,0.0026788
4.9141,0.0025556
4.918,0.0024089
4.9219,0.0031635
4.9258,0.002618
4.9297,0.0035083
4.9336,0.0024401
4.9375,0.002744
4.9414,0.0031021
4.9453,0.0035061
4.9492,0.0026499
4.9531,0.0022691
4.957,0.0028426
4.9609,0.0021036
4.9648,0.0024834
4.9688,0.0026816
4.9727,0.0031113
4.9766,0.0030868
4.9805,0.0025603
4.9844,0.0028884
4.9883,0.0024421
4.9922,0.0027862
4.9961,0.0032281
5,0.0026051
5.0039,0.0024411
5.0078,0.0023672
5.0117,0.0027942
5.0156,0.0030129
5.0195,0.0032947
5.0234,0.002569
5.0273,0.0026161
5.0313,0.0023421
5.0352,0.0031386
5.0391,0.0025397
5.043,0.0023925
5.0469,0.0033246
5.0508,0.0028332
5.0547,0.0027979
5.0586,0.0021889
5.0625,0.0026974
5.0664,0.0027249
5.0703,0.0021497
5.0742,0.0024503
5.0781,0.0023835
5.082,0.0027137
5.0859,0.0021745
5.0898,0.00292
5.0938,0.0031683
5.0977,0.002429
5.1016,0.0025297
5.1055,0.002708
5.1094,0.0029526
5.1133,0.002714
5.1172,0.0026763
5.1211,0.0023751
5.125,0.0024758
5.1289,0.0027865
5.1328,0.003175
5.1367,0.0027879
5.1406,0.002163
5.1445,0.0027404
5.1484,0.0025495
5.1523,0.0024899
5.1563,0.0024945
5.1602,0.0022598
5.1641,0.0024587
5.168,0.0022974
5.1719,0.0024479
5.1758,0.0026191
5.1797,0.002639
5.1836,0.0025003
5.1875,0.0025229
5.1914,0.0025912
5.1953,0.0027467
5.1992,0.0030459
5.2031,0.0028218
5.207,0.0025114
5.2109,0.0028334
5.2148,0.0025427
5.2188,0.0020058
5.2227,0.0018096
5.2266,0.0020356
5.2305,0.0025569
5.2344,0.0024171
5.2383,0.0023724
5.2422,0.0026277
5.2461,0.0023636
5.25,0.0023561
5.2539,0.0027791
5.2578,0.0028291
5.2617,0.0034081
5.2656,0.002652
5.2695,0.0025662
5.2734,0.0023432
5.2773,0.0024769
5.2813,0.0025275
5.2852,0.0019254
5.2891,0.0024583
5.293,0.0028191
5.2969,0.0023566
5.3008,0.0027345
5.3047,0.0029073
5.3086,0.0029306
5.3125,0.0028158
5.3164,0.0017353
5.3203,0.0023327
5.3242,0.0028556
5.3281,0.0026867
5.332,0.0025602
5.3359,0.0027178
5.3398,0.0029524
5.3438,0.0025741
5.3477,0.0021922
5.3516,0.0023115
5.3555,0.0021937
5.3594,0.0024573
5.3633,0.0021427
5.3672,0.0020314
5.3711,0.0017156
5.375,0.0013465
5.3789,0.0012971
5.3828,0.0011497
5.3867,0.00038176
5.3906,0.00075735
5.3945,0.0008639
5.3984,0.0003692
5.4023,0.0008697
5.4063,0.00045001
5.4102,6.918e-05
5.4141,0.00015003
5.418,0.00010613
5.4219,0.00029186
5.4258,0.00047442
5.4297,9.9675e-05
5.4336,0.00035437
5.4375,0.00079885
5.4414,0.00049351
5.4453,0.00044438
5.4492,-0.00014374
5.4531,-5.015e-05
5.457,0.00022063
5.4609,9.7315e-05
5.4648,-0.00044039
5.4688,-0.00039514
5.4727,0.00051465
5.4766,-0.0001008
5.4805,0.0009176
5.4844,-0.0005914
5.4883,0.00035645
5.4922,0.00019271
5.4961,-8.756e-05
5.5,0.00030647
5.5039,-0.00013262
5.5078,0.00044081
5.5117,0.00015476
5.5156,-0.00044991
5.5195,-0.0007275
5.5234,2.8025e-05
5.5273,0.0005286
5.5313,0.00017916
5.5352,0.00012387
5.5391,0.00033778
5.543,-0.00040571
5.5469,0.00058655
5.5508,-0.00023458
5.5547,9.587e-05
5.5586,-4.3556e-05
5.5625,0.00014146
5.5664,-0.0005937
5.5703,0.0006403
5.5742,0.00030555
5.5781,0.0008375
5.582,0.0006441
5.5859,0.00016347
5.5898,-0.00015915
5.5938,-0.00043374
5.5977,0.00018824
5.6016,0.00025289
5.6055,0.0005305
5.6094,-0.00019663
5.6133,0.00039525
5.6172,0.00011301
5.6211,-0.00021045
5.625,0.00031621
5.6289,0.00012092
5.6328,-6.668e-05
5.6367,0.00067385
5.6406,0.00022283
5.6445,-3.0696e-05
5.6484,0.00011093
5.6523,5.1515e-05
5.6563,9.204e-05
5.6602,0.00020078
5.6641,-0.00016577
5.668,-0.00023115
5.6719,0.00017678
5.6758,0.00071105
5.6797,-7.011e-05
5.6836,-0.00032565
5.6875,-5.679e-05
5.6914,-0.00014749
5.6953,-9.614e-05
5.6992,0.00018253
5.7031,-3.8053e-05
5.707,-0.00020892
5.7109,-0.00016054
5.7148,-0.00047241
5.7188,-0.00030589
5.7227,-0.0004964
5.7266,-0.00017486
5.7305,-0.00037546
5.7344,-0.00024631
5.7383,-0.00011136
5.7422,-0.00043825
5.7461,-2.6704e-05
5.75,0.00010019
5.7539,-0.00035505
5.7578,0.00038855
5.7617,-0.0005572
5.7656,-0.00013003
5.7695,-0.00051695
5.7734,-0.00011884
5.7773,-0.00047166
5.7813,-0.00021207
5.7852,-0.00027307
5.7891,-0.00043013
5.793,-0.0007408
5.7969,0.00018752
5.8008,0.0006905
5.8047,0.00076265
5.8086,-0.0002051
5.8125,-5.4265e-05
5.8164,-0.00020787
5.8203,-1.9594e-05
5.8242,-0.00037281
5.8281,-0.0007268
5.832,-6.0225e-05
5.8359,-0.00047895
5.8398,-0.0007163
5.8438,0.0007983
5.8477,-0.00012057
5.8516,0.00010812
5.8555,0.00039024
5.8594,-0.00062455
5.8633,0.00011791
5.8672,0.00014761
5.8711,-4.48e-06
5.875,1.6108e-05
5.8789,-0.00023267
5.8828,0.00020431
5.8867,-0.00035487
5.8906,-0.0003363
5.8945,0.00020337
5.8984,0.0005455
5.9023,-0.00018583
5.9063,-0.00022743
5.9102,9.5205e-05
5.9141,0.00033061
5.918,0.00029625
5.9219,5.4495e-05
5.9258,-0.00025856
5.9297,0.00019566
5.9336,-4.8462e-05
5.9375,0.00047142
5.9414,-0.0005098
5.9453,4.0343e-05
5.9492,0.00044824
5.9531,-0.00018074
5.957,-0.00022419
5.9609,-0.00033069
5.9648,-9.719e-05
5.9688,-6.941e-05
5.9727,4.7511e-05
5.9766,-0.00031759
5.9805,1.8444e-05
5.9844,-0.00022933
5.9883,-0.00014993
5.9922,-0.00031801
5.9961,-0.00012237
6,0.0012395
6.0039,0.0011822
6.0078,0.00038304
6.0117,0.00025594
6.0156,-0.0004742
6.0195,-0.00022869
6.0234,-0.00024016
6.0273,0.00016979
6.0313,0.00015413
6.0352,2.5573e-05
6.0391,-0.00012877
6.043,-0.00033222
6.0469,-1.8002e-06
6.0508,0.00039618
6.0547,0.00013659
6.0586,3.7246e-05
6.0625,0.00019168
6.0664,0.00015366
6.0703,-0.00063135
6.0742,-5.3565e-05
6.0781,-0.00020524
6.082,-0.0007646
6.0859,-0.0005051
6.0898,-0.00013952
6.0938,0.00027238
6.0977,-9.558e-05
6.1016,8.142e-05
6.1055,-0.00032691
6.1094,-0.00077125
6.1133,2.5109e-05
6.1172,-0.00034408
6.1211,0.00040723
6.125,0.00060665
6.1289,-0.00013785
6.1328,0.00041532
6.1367,0.00033031
6.1406,-0.0005081
6.1445,-2.1144e-05
6.1484,8.0825e-05
6.1523,0.00017118
6.1563,0.00022425
6.1602,0.0002241
6.1641,0.00022852
6.168,-0.00011741
6.1719,0.00013101
6.1758,-0.0007988
6.1797,-0.00041909
6.1836,0.00041082
6.1875,-0.00025825
6.1914,8.1275e-05
6.1953,0.00049221
6.1992,-0.00035667
6.2031,-0.00037795
6.207,-0.00020581
6.2109,0.00013279
6.2148,-8.8115e-05
6.2188,-0.00035675
6.2227,-0.0005662
6.2266,-0.00014374
6.2305,-9.6575e-05
6.2344,-0.00021425
6.2383,-0.00012325
6.2422,-0.00042062
6.2461,0.00016221
6.25,-0.00079535
6.2539,3.3228e-05
6.2578,0.00022841
6.2617,-0.00029964
6.2656,-1.4384e-05
6.2695,0.00010986
6.2734,-0.00021392
6.2773,-7.4115e-06
6.2813,0.00013683
6.2852,-0.0003446
6.2891,0.0002808
6.293,0.00037455
6.2969,0.00010543
6.3008,2.3061e-06
6.3047,-0.00041037
6.3086,0.00017899
6.3125,-0.00042512
6.3164,0.0005662
6.3203,0.00018796
6.3242,9.3195e-05
6.3281,-0.00014172
6.332,-0.000774
6.3359,-0.00042936
6.3398,0.00012032
6.3438,0.0008421
6.3477,0.0002498
6.3516,9.8355e-05
6.3555,-0.00019928
6.3594,4.2775e-05
6.3633,0.00035188
6.3672,-5.9435e-05
6.3711,0.00072615
6.375,-0.00033814
6.3789,3.8795e-06
6.3828,0.00020254
6.3867,-0.00046254
6.3906,0.00046291
6.3945,0.00031092
6.3984,0.00031716
6.4023,0.00056355
6.4063,0.0006418
6.4102,0.0005513
6.4141,0.00010707
6.418,0.00027171
6.4219,0.00043333
6.4258,-0.00011887
6.4297,-3.2957e-05
6.4336,0.00017968
6.4375,0.00034856
6.4414,0.000944
6.4453,0.00058645
6.4492,0.00014647
6.4531,8.006e-05
6.457,0.0008404
6.4609,0.0012526
6.4648,0.00032542
6.4688,7.194e-05
6.4727,-0.00028353
6.4766,0.00053915
6.4805,0.00028133
6.4844,0.00058065
6.4883,-0.00016034
6.4922,0.0002382
6.4961,-8.7235e-05
6.5,0.0005854
6.5039,-6.7135e-05
6.5078,9.449e-05
6.5117,4.5514e-06
6.5156,0.00048293
6.5195,0.00028535
6.5234,-0.00022246
6.5273,-9.5325e-05
6.5313,-0.00024567
6.5352,0.00030104
6.5391,0.00024091
6.543,-0.00045231
6.5469,-0.0005483
6.5508,0.00010651
6.5547,0.00035678
6.5586,0.00015636
6.5625,-0.0004621
6.5664,-0.00047387
6.5703,0.00037785
6.5742,2.1142e-05
6.5781,-6.039e-05
6.582,0.0005447
6.5859,-0.00020173
6.5898,0.00012442
6.5938,0.00021737
6.5977,0.00035057
6.6016,-0.00025026
6.6055,0.00017138
6.6094,0.0010134
6.6133,-0.00049305
6.6172,0.00019803
6.6211,-3.2783e-05
6.625,-0.00024042
6.6289,-0.00023995
6.6328,0.00023057
6.6367,0.0008715
6.6406,-0.00023138
6.6445,0.00023583
6.6484,-0.00015787
6.6523,0.0007349
6.6563,0.00022672
6.6602,-1.5007e-05
6.6641,0.00025292
6.668,3.0746e-05
6.6719,0.00042106
6.6758,-4.107e-05
6.6797,-0.00037748
6.6836,0.00010231
6.6875,0.00056705
6.6914,-0.00040343
6.6953,-5.81e-05
6.6992,0.00039121
6.7031,-0.00063805
6.707,0.00026039
6.7109,0.00029693
6.7148,9.322e-05
6.7188,-0.00026732
6.7227,-5.418e-06
6.7266,2.9543e-05
6.7305,0.0003337
6.7344,0.00024823
6.7383,-9.8955e-05
6.7422,0.0006067
6.7461,2.1857e-05
6.75,-0.00024443
6.7539,-0.00011063
6.7578,0.00034889
6.7617,0.00011529
6.7656,0.00036171
6.7695,7.3745e-05
6.7734,0.0009317
6.7773,-0.00053115
6.7813,-8.2265e-05
6.7852,4.24e-05
6.7891,0.00010881
6.793,0.00059215
6.7969,0.00014876
6.8008,1.9302e-05
6.8047,7.1215e-05
6.8086,0.0003021
6.8125,-0.00021277
6.8164,0.0001901
6.8203,-0.00052035
6.8242,6.15e-06
6.8281,-0.00030169
6.832,-0.00020611
6.8359,0.00011644
6.8398,-0.00038798
6.8438,-0.00034335
6.8477,-0.00052995
6.8516,-0.0007805
6.8555,-4.484e-05
6.8594,0.00042026
6.8633,-5.509e-05
6.8672,-7.2385e-05
6.8711,-0.00035635
6.875,0.00057935
6.8789,-6.1705e-05
6.8828,0.00048938
6.8867,0.00016083
6.8906,-6.5495e-05
6.8945,0.0003986
6.8984,0.00034837
6.9023,-5.237e-05
6.9063,0.00043698
6.9102,0.00060945
6.9141,-3.2944e-05
6.918,-8.2305e-05
6.9219,0.00017151
6.9258,0.00017037
6.9297,0.00034216
6.9336,-3.1458e-05
6.9375,0.00030703
6.9414,0.00041696
6.9453,0.00010216
6.9492,9.136e-05
6.9531,-0.00040244
6.957,-0.00036445
6.9609,-0.00045442
6.9648,-0.00036545
6.9688,2.9525e-05
6.9727,-0.00048047
6.9766,0.00088645
6.9805,0.00035159
6.9844,-0.0006462
6.9883,-0.00033102
6.9922,3.0451e-05
6.9961,-0.0005464
7,-0.00011229
7.0039,0.00042797
7.0078,-2.2535e-05
7.0117,6.3635e-06
7.0156,-0.00032746
7.0195,-0.00017144
7.0234,-0.00045282
7.0273,0.00015501
7.0313,-0.00013178
7.0352,0.00030731
7.0391,0.00047072
7.043,0.00041874
7.0469,3.2697e-05
7.0508,-0.0001235
7.0547,-0.00036743
7.0586,0.0001159
7.0625,0.00041683
7.0664,-4.6006e-05
7.0703,4.5137e-06
7.0742,0.00027297
7.0781,0.00035275
7.082,-0.00045431
7.0859,0.00012521
7.0898,0.00013813
7.0938,3.1669e-05
7.0977,0.00041354
7.1016,-2.5211e-05
7.1055,-0.00019107
7.1094,0.00018934
7.1133,0.00024097
7.1172,-1.298e-05
7.1211,0.00033232
7.125,-0.00049557
7.1289,-0.00034401
7.1328,-0.0010505
7.1367,0.00022292
7.1406,-0.00030785
7.1445,-4.4581e-05
7.1484,0.00040104
7.1523,5.864e-05
7.1563,-0.00012016
7.1602,-0.00026916
7.1641,-5.7635e-05
7.168,0.00023837
7.1719,-0.00051215
7.1758,-6.59e-07
7.1797,0.00030093
7.1836,-0.00047554
7.1875,0.00026723
7.1914,0.00027608
7.1953,-0.00027484
7.1992,-0.00049487
7.2031,0.00018777
7.207,0.00031673
7.2109,0.00023225
7.2148,0.00029515
7.2188,-0.00039337
7.2227,0.00023057
7.2266,-0.00018177
7.2305,-0.00017672
7.2344,-0.0005299
7.2383,0.00040887
7.2422,8.3815e-05
7.2461,0.00038137
7.25,0.0005671
7.2539,-0.00036273
7.2578,0.00027192
7.2617,4.3457e-05
7.2656,0.00037327
7.2695,0.00044361
7.2734,0.00034515
7.2773,-0.00022942
7.2813,2.0012e-05
7.2852,0.00016175
7.2891,0.0011853
7.293,0.00049856
7.2969,0.00087855
7.3008,0.00019663
7.3047,0.00011736
7.3086,0.00025254
7.3125,-0.00015705
7.3164,0.00046244
7.3203,-3.766e-05
7.3242,-0.00047088
7.3281,0.00032301
7.332,-0.00053485
7.3359,-0.0006244
7.3398,0.00013877
7.3438,-0.00029172
7.3477,-0.00027349
7.3516,-9.6065e-06
7.3555,-0.00013091
7.3594,-4.6192e-05
7.3633,0.00011789
7.3672,-0.00040093
7.3711,-0.00042596
7.375,-0.00073485
7.3789,-0.00012438
7.3828,0.00025811
7.3867,-0.00021496
7.3906,0.00021854
7.3945,0.000237
7.3984,0.00039783
7.4023,0.00039673
7.4063,-0.00019845
7.4102,-0.00026035
7.4141,5.6815e-05
7.418,-0.00019845
7.4219,0.0005473
7.4258,0.0005192
7.4297,6.3645e-05
7.4336,-0.00012136
7.4375,0.00021065
7.4414,-0.00020105
7.4453,-1.1851e-05
7.4492,-0.0001534
7.4531,7.345e-05
7.457,0.00043688
7.4609,0.00030221
7.4648,0.00044631
7.4688,-0.0002779
7.4727,0.00011388
7.4766,-0.00029219
7.4805,0.0001955
7.4844,0.00017593
7.4883,0.00051745
7.4922,0.00044424
7.4961,0.00028329
7.5,-0.00012702
7.5039,-0.00011383
7.5078,-0.00066455
7.5117,-8.94e-05
7.5156,-0.00047128
7.5195,0.0004116
7.5234,0.0004037
7.5273,0.00013147
7.5313,-5.6905e-05
7.5352,0.00011992
7.5391,0.0006294
7.543,0.0005336
7.5469,-0.00010394
7.5508,0.00011592
7.5547,-0.00033447
7.5586,0.00021131
7.5625,0.00033993
7.5664,0.00040474
7.5703,-0.00045052
7.5742,0.00026813
7.5781,-0.00022284
7.582,-6.17e-05
7.5859,0.00033805
7.5898,0.00015634
7.5938,-9.0925e-06
7.5977,0.00026804
7.6016,0.0006403
7.6055,-0.00014949
7.6094,-0.00040269
7.6133,-0.00033952
7.6172,-0.00027152
7.6211,-0.00018613
7.625,0.00024621
7.6289,-0.00069865
7.6328,0.00012428
7.6367,-0.0002287
7.6406,0.00044124
7.6445,-0.00024629
7.6484,5.9525e-05
7.6523,-0.00027584
7.6563,-0.00018629
7.6602,-3.6441e-05
7.6641,-2.2806e-05
7.668,-0.00012484
7.6719,0.00046028
7.6758,0.00025352
7.6797,0.0007103
7.6836,-4.8475e-05
7.6875,0.00042395
7.6914,-0.0006946
7.6953,0.00027737
7.6992,0.00018897
7.7031,-6.846e-05
7.707,0.00031476
7.7109,0.00038258
7.7148,0.00043933
7.7188,0.00022204
7.7227,0.00028365
7.7266,-0.00017237
7.7305,-0.00032953
7.7344,-4.8069e-05
7.7383,9.946e-05
7.7422,0.00035665
7.7461,-0.0002697
7.75,-0.00016922
7.7539,0.0010554
7.7578,-0.00021093
7.7617,0.00069715
7.7656,0.00036826
7.7695,-0.0001595
7.7734,7.293e-06
7.7773,-2.5895e-05
7.7813,0.00022138
7.7852,0.00053975
7.7891,-0.0005198
7.793,0.000776
7.7969,0.00033506
7.8008,-0.00013652
7.8047,8.7685e-06
7.8086,0.00015456
7.8125,0.00015009
7.8164,0.00046973
7.8203,0.0004342
7.8242,-7.1575e-05
7.8281,1.6583e-05
7.832,0.00032753
7.8359,0.00011281
7.8398,0.00047047
7.8438,-0.00017812
7.8477,0.00022698
7.8516,0.00015895
7.8555,0.00054795
7.8594,-0.00041946
7.8633,5.727e-05
7.8672,7.584e-05
7.8711,-0.0007725
7.875,0.00049428
7.8789,0.0010438
7.8828,-3.2739e-05
7.8867,0.00015164
7.8906,-0.00011126
7.8945,0.00019295
7.8984,-7.3245e-05
7.9023,2.7448e-05
7.9063,0.00063525
7.9102,-0.00023966
7.9141,-0.00014901
7.918,2.2448e-05
7.9219,-3.2699e-07
7.9258,0.00055715
7.9297,0.00077325
7.9336,-0.00028063
7.9375,-0.00015128
7.9414,0.00026583
7.9453,-5.2435e-05
7.9492,0.00078065
7.9531,0.0006437
7.957,0.00025068
7.9609,0.00024137
7.9648,-8.5595e-05
7.9688,0.00029868
7.9727,0.00042316
7.9766,7.0055e-05
7.9805,0.00069585
7.9844,0.00024447
7.9883,-3.8051e-05
7.9922,0.00012745
7.9961,0.00038247
8,-0.0001441
8.0039,-2.8726e-05
8.0078,0.00084715
8.0117,-0.00015251
8.0156,0.00035574
8.0195,0.0003148
8.0234,0.00058975
8.0273,0.00021476
8.0313,-0.00084275
8.0352,-0.00027259
8.0391,0.00021008
8.043,0.00012129
8.0469,0.00072605
8.0508,0.0005329
8.0547,0.00021631
8.0586,7.578e-05
8.0625,-0.00049559
8.0664,0.0007138
8.0703,0.0001022
8.0742,-0.00049549
8.0781,0.00019858
8.082,7.6295e-05
8.0859,-0.0001651
8.0898,0.00021021
8.0938,-0.00021325
8.0977,-0.00043893
8.1016,-0.00058385
8.1055,-9.6305e-05
8.1094,-0.00019547
8.1133,0.00017587
8.1172,-0.00051435
8.1211,-5.5495e-05
8.125,-0.0005082
8.1289,0.0006725
8.1328,-1.3274e-08
8.1367,0.00048056
8.1406,0.00022286
8.1445,0.00036522
8.1484,-0.00037065
8.1523,0.0004761
8.1563,0.0005428
8.1602,-0.000702
8.1641,-2.2633e-05
8.168,-0.00018149
8.1719,0.0001118
8.1758,-0.0002417
8.1797,0.00015396
8.1836,0.0002582
8.1875,0.00012412
8.1914,-1.1227e-05
8.1953,-0.0004271
8.1992,5.278e-05
8.2031,-0.00014446
8.207,-0.00040474
8.2109,3.2713e-05
8.2148,-2.0828e-05
8.2188,0.00011754
8.2227,0.0003941
8.2266,0.00024051
8.2305,0.00049429
8.2344,-0.00022549
8.2383,-0.00026955
8.2422,9.048e-06
8.2461,0.0005385
8.25,0.0005151
8.2539,1.0348e-05
8.2578,-0.00016001
8.2617,-0.00049382
8.2656,0.00027284
8.2695,3.6065e-05
8.2734,-0.00039251
8.2773,-9.433e-05
8.2813,-0.00061915
8.2852,0.00018516
8.2891,-2.3484e-05
8.293,0.00061745
8.2969,-0.00043828
8.3008,0.0003912
8.3047,0.00011807
8.3086,0.0001405
8.3125,0.00044329
8.3164,0.00072995
8.3203,8.4925e-05
8.3242,0.0011147
8.3281,0.00042206
8.332,0.000675
8.3359,0.0010135
8.3398,0.001691
8.3438,0.0012079
8.3477,0.0018319
8.3516,0.0019556
8.3555,0.0019291
8.3594,0.0021057
8.3633,0.0015058
8.3672,0.0022718
8.3711,0.0019444
8.375,0.0021535
8.3789,0.0015463
8.3828,0.0019194
8.3867,0.0022234
8.3906,0.0022839
8.3945,0.0019034
8.3984,0.001279
8.4023,0.0015407
8.4063,0.0019953
8.4102,0.0021861
8.4141,0.0020567
8.418,0.0016654
8.4219,0.0026666
8.4258,0.001892
8.4297,0.0021691
8.4336,0.0017169
8.4375,0.001475
8.4414,0.0021209
8.4453,0.0022568
8.4492,0.0025446
8.4531,0.0017208
8.457,0.0013356
8.4609,0.0024826
8.4648,0.002001
8.4688,0.0015045
8.4727,0.0016997
8.4766,0.0016055
8.4805,0.0022961
8.4844,0.00209
8.4883,0.0019631
8.4922,0.0019609
8.4961,0.0015863
8.5,0.0022305
8.5039,0.0020054
8.5078,0.0017952
8.5117,0.001828
8.5156,0.0018652
8.5195,0.0015981
8.5234,0.0021872
8.5273,0.002432
8.5313,0.002828
8.5352,0.0021413
8.5391,0.0016763
8.543,0.0020358
8.5469,0.0016008
8.5508,0.0017288
8.5547,0.0016999
8.5586,0.0016258
8.5625,0.0020435
8.5664,0.0015078
8.5703,0.0021343
8.5742,0.0021801
8.5781,0.0022697
8.582,0.0019019
8.5859,0.0021344
8.5898,0.0025578
8.5938,0.0019412
8.5977,0.0018583
8.6016,0.0025441
8.6055,0.0010254
8.6094,0.001746
8.6133,0.0027628
8.6172,0.0017349
8.6211,0.0017034
8.625,0.0014695
8.6289,0.0021864
8.6328,0.0011636
8.6367,0.0016306
8.6406,0.0021168
8.6445,0.0019181
8.6484,0.0021403
8.6523,0.0019644
8.6563,0.0021596
8.6602,0.0014623
8.6641,0.0019928
8.668,0.0013601
8.6719,0.0021896
8.6758,0.0018031
8.6797,0.0021476
8.6836,0.0017322
8.6875,0.0020478
8.6914,0.0023153
8.6953,0.0012526
8.6992,0.0012985
8.7031,0.001312
8.707,0.0022564
8.7109,0.0020942
8.7148,0.0016988
8.7188,0.0024777
8.7227,0.0020018
8.7266,0.0014004
8.7305,0.0016092
8.7344,0.0014841
8.7383,0.0023107
8.7422,0.0017549
8.7461,0.0015448
8.75,0.0017471
8.7539,0.0016499
8.7578,0.0022454
8.7617,0.0021143
8.7656,0.0020563
8.7695,0.0021004
8.7734,0.0019704
8.7773,0.0016177
8.7813,0.0021382
8.7852,0.0016466
8.7891,0.0015474
8.793,0.0015385
8.7969,0.0022222
8.8008,0.0022641
8.8047,0.0013028
8.8086,0.0018829
8.8125,0.0020354
8.8164,0.00174
8.8203,0.0022315
8.8242,0.0020559
8.8281,0.0019125
8.832,0.0017676
8.8359,0.002201
8.8398,0.0022587
8.8438,0.0021217
8.8477,0.001869
8.8516,0.0022774
8.8555,0.0016274
8.8594,0.001992
8.8633,0.0024237
8.8672,0.0018492
8.8711,0.0016038
8.875,0.0025778
8.8789,0.0017965
8.8828,0.0020381
8.8867,0.0015998
8.8906,0.0019893
8.8945,0.0020567
8.8984,0.0018969
8.9023,0.0020145
8.9063,0.0023301
8.9102,0.0014145
8.9141,0.0019921
8.918,0.0012254
8.9219,0.0019501
8.9258,0.0026331
8.9297,0.0022926
8.9336,0.0019642
8.9375,0.0018501
8.9414,0.0021553
8.9453,0.0023372
8.9492,0.0019612
8.9531,0.0025177
8.957,0.0016482
8.9609,0.001219
8.9648,0.001648
8.9688,0.0018283
8.9727,0.0017535
8.9766,0.0015748
8.9805,0.0023405
8.9844,0.001295
8.9883,0.0016956
8.9922,0.0015324
8.9961,0.0017133
9,0.0016501
9.0039,0.0020581
9.0078,0.0015243
9.0117,0.0016081
9.0156,0.0019446
9.0195,0.0023087
9.0234,0.0012917
9.0273,0.0026083
9.0313,0.001684
9.0352,0.0022392
9.0391,0.0023862
9.043,0.0024761
9.0469,0.0018092
9.0508,0.0019797
9.0547,0.0018933
9.0586,0.0017211
9.0625,0.0020224
9.0664,0.0020497
9.0703,0.0017977
9.0742,0.0019675
9.0781,0.0028607
9.082,0.0019028
9.0859,0.0021434
9.0898,0.0017154
9.0938,0.0016833
9.0977,0.0017461
9.1016,0.0020746
9.1055,0.0016042
9.1094,0.0012469
9.1133,0.0019328
9.1172,0.001767
9.1211,0.0020235
9.125,0.001956
9.1289,0.0021869
9.1328,0.0022537
9.1367,0.0014757
9.1406,0.0014155
9.1445,0.0021406
9.1484,0.0020758
9.1523,0.001635
9.1563,0.0023992
9.1602,0.0019648
9.1641,0.0019872
9.168,0.0020312
9.1719,0.0021934
9.1758,0.0024592
9.1797,0.0018214
9.1836,0.0012954
9.1875,0.0022582
9.1914,0.0015644
9.1953,0.0023255
9.1992,0.0016727
9.2031,0.0024064
9.207,0.0015948
9.2109,0.0014898
9.2148,0.0022276
9.2188,0.0014159
9.2227,0.0021493
9.2266,0.0020755
9.2305,0.0018821
9.2344,0.001822
9.2383,0.0026763
9.2422,0.0018169
9.2461,0.001877
9.25,0.0016032
9.2539,0.0016369
9.2578,0.0017089
9.2617,0.0025123
9.2656,0.0017642
9.2695,0.0016522
9.2734,0.0017301
9.2773,0.0021327
9.2813,0.0014077
9.2852,0.0020918
9.2891,0.0014026
9.293,0.0018357
9.2969,0.0012478
9.3008,0.0020941
9.3047,0.0021565
9.3086,0.0016699
9.3125,0.0020216
9.3164,0.0019602
9.3203,0.0023056
9.3242,0.0019364
9.3281,0.0022571
9.332,0.0018498
9.3359,0.0016643
9.3398,0.0018816
9.3438,0.0018239
9.3477,0.0022031
9.3516,0.0018673
9.3555,0.0015852
9.3594,0.0018242
9.3633,0.0022963
9.3672,0.0017257
9.3711,0.0016312
9.375,0.0021913
9.3789,0.0018362
9.3828,0.0015978
9.3867,0.0013553
9.3906,0.00095275
9.3945,0.0013699
9.3984,0.0010383
9.4023,0.0011058
9.4063,0.00033476
9.4102,0.0011869
9.4141,0.0007697
9.418,-7.459e-05
9.4219,0.0007391
9.4258,5.315e-05
9.4297,0.00028051
9.4336,0.00018805
9.4375,-0.00023643
9.4414,-0.0009499
9.4453,0.00025553
9.4492,-4.3018e-05
9.4531,-0.00012249
9.457,0.00024303
9.4609,-0.00014772
9.4648,0.00033261
9.4688,0.00014896
9.4727,-0.00025185
9.4766,0.00039971
9.4805,0.00027701
9.4844,0.0005552
9.4883,-0.00020338
9.4922,-0.00020767
9.4961,0.00021516
9.5,0.00033696
9.5039,0.00039332
9.5078,0.00010467
9.5117,2.1531e-05
9.5156,0.00033694
9.5195,0.00079935
9.5234,0.00041427
9.5273,0.00012834
9.5313,-0.00010517
9.5352,0.00027763
9.5391,-6.5085e-05
9.543,0.00019431
9.5469,0.00038435
9.5508,0.00042872
9.5547,0.00029734
9.5586,0.00056225
9.5625,0.00071775
9.5664,-0.00061445
9.5703,-0.00057425
9.5742,-0.00027199
9.5781,-0.00065635
9.582,-8.913e-05
9.5859,-0.00010526
9.5898,7.1005e-05
9.5938,5.1595e-05
9.5977,-0.00031672
9.6016,-0.0003727
9.6055,0.00019859
9.6094,-0.00020432
9.6133,-0.0005402
9.6172,-4.3992e-05
9.6211,2.2664e-05
9.625,-0.00020487
9.6289,0.00016152
9.6328,-5.4325e-06
9.6367,-0.00016891
9.6406,-0.00011438
9.6445,5.901e-05
9.6484,-0.0002642
9.6523,-0.00048763
9.6563,-0.00017626
9.6602,-8.0345e-05
9.6641,5.286e-05
9.668,-0.00013501
9.6719,-0.00027963
9.6758,0.00010126
9.6797,-0.00014155
9.6836,0.00018999
9.6875,-0.00012401
9.6914,-9.4045e-05
9.6953,-0.00012497
9.6992,-0.00041798
9.7031,-0.00041724
9.707,-0.00042324
9.7109,0.00055675
9.7148,-0.00013406
9.7188,0.00028017
9.7227,7.986e-05
9.7266,0.000618
9.7305,0.00028648
9.7344,-0.00048348
9.7383,-0.0001785
9.7422,0.00023793
9.7461,1.2221e-05
9.75,0.00070325
9.7539,-0.00011805
9.7578,-0.0006503
9.7617,5.581e-05
9.7656,-0.00042359
9.7695,-8.48e-05
9.7734,0.00027655
9.7773,6.3245e-07
9.7813,-7.675e-06
9.7852,-0.00018997
9.7891,-0.00017917
9.793,-0.00017021
9.7969,-0.0011277
9.8008,-8.732e-07
9.8047,0.00021114
9.8086,-0.00059445
9.8125,-0.0006687
9.8164,9.5355e-05
9.8203,-0.00064995
9.8242,-0.00070315
9.8281,0.00017708
9.832,-0.00032618
9.8359,0.00035138
9.8398,-0.00054085
9.8438,-0.0002981
9.8477,5.7645e-06
9.8516,0.00011391
9.8555,8.3075e-05
9.8594,-1.6953e-05
9.8633,-0.00016774
9.8672,-0.00029183
9.8711,8.392e-05
9.875,-0.00022029
9.8789,6.856e-05
9.8828,0.0003067
9.8867,-0.00087145
9.8906,0.0005626
9.8945,-0.00029843
9.8984,0.00039068
9.9023,0.00047322
9.9063,-0.00059735
9.9102,-2.1202e-05
9.9141,0.0011333
9.918,-0.000177
9.9219,6.448e-05
9.9258,8.6555e-06
9.9297,0.00034524
9.9336,0.00029198
9.9375,-0.00041881
9.9414,-0.00023462
9.9453,3.8466e-05
9.9492,-0.00011486
9.9531,0.00078575
9.957,2.8351e-05
9.9609,1.6791e-05
9.9648,-0.00043717
9.9688,-0.0005984
9.9727,0.00015468
9.9766,-0.00018505
9.9805,0.00012171
9.9844,-0.0003999
9.9883,0.000207
9.9922,-0.0007586
9.9961,0.00042776
10,0.00016586
10.004,-9.8915e-05
10.008,-0.0005501
10.012,-0.00028043
10.016,-5.0375e-05
10.02,0.00028545
10.023,-0.0005086
10.027,0.00031461
10.031,0.00083885
10.035,-0.00030682
10.039,4.6203e-05
10.043,-0.00033825
10.047,-0.0007012
10.051,0.00043259
10.055,0.00015883
10.059,-0.00027142
10.063,-5.7285e-05
10.066,-0.00018437
10.07,-0.000623
10.074,-0.0011256
10.078,-0.00012235
10.082,-0.00026847
10.086,-0.00030981
10.09,-0.00040739
10.094,-0.00075325
10.098,-0.00029623
10.102,-5.329e-05
10.105,-0.00048223
10.109,5.6935e-05
10.113,-0.00019483
10.117,-0.00013181
10.121,-0.0006004
10.125,-0.00036563
10.129,4.9488e-05
10.133,-0.00037392
10.137,-3.5192e-05
10.141,0.00061025
10.145,0.0001951
10.148,0.00028186
10.152,0.000748
10.156,0.00032501
10.16,4.5066e-05
10.164,0.0005905
10.168,-0.00042027
10.172,-0.00033973
10.176,0.0006183
10.18,6.7475e-05
10.184,-0.00010927
10.188,6.2335e-05
10.191,-0.00020123
10.195,-0.00021981
10.199,-0.00026028
10.203,-0.00032314
10.207,-0.00046166
10.211,-0.00014827
10.215,-0.00032961
10.219,0.00038255
10.223,-4.6367e-05
10.227,0.00022816
10.23,-0.00018571
10.234,-0.00016798
10.238,0.00030333
10.242,0.00037584
10.246,-0.00013244
10.25,0.00045568
10.254,2.9568e-05
10.258,-2.0487e-06
10.262,0.00064945
10.266,0.00042265
10.27,0.00020308
10.273,2.5057e-05
10.277,-0.00030725
10.281,-0.00015583
10.285,0.000533
10.289,-0.000821
10.293,-0.00032793
10.297,-0.00016918
10.301,-5.357e-05
10.305,-0.000743
10.309,6.7875e-05
10.313,0.00013337
10.316,-0.00046019
10.32,-0.00022091
10.324,-0.0005592
10.328,0.0004428
10.332,-1.6983e-06
10.336,-0.00022492
10.34,-0.00046548
10.344,-0.00010512
10.348,0.00045312
10.352,-4.9478e-05
10.355,-2.9185e-05
10.359,-0.0005878
10.363,-0.00011352
10.367,9.7025e-05
10.371,-0.00066475
10.375,0.00023015
10.379,0.0007149
10.383,-0.0006941
10.387,-0.00086045
10.391,-0.0001402
10.395,0.00017494
10.398,-9.1845e-05
10.402,-7.9535e-05
10.406,2.1712e-05
10.41,-0.00031895
10.414,-0.00049745
10.418,0.0006559
10.422,0.000204
10.426,-0.00031737
10.43,0.00048951
10.434,-0.0003358
10.438,9.902e-05
10.441,0.00042429
10.445,-0.00011749
10.449,6.841e-05
10.453,0.00020944
10.457,0.0008923
10.461,0.00036512
10.465,6.1505e-05
10.469,0.00012207
10.473,9.979e-05
10.477,0.00065415
10.48,7.9305e-05
10.484,-0.00011825
10.488,0.00022406
10.492,8.096e-05
10.496,0.00037127
10.5,0.00040967
10.504,0.00043903
10.508,0.00027245
10.512,0.0002602
10.516,0.00070505
10.52,-0.00038104
10.523,-9.638e-05
10.527,-0.0005763
10.531,0.00034274
10.535,1.7227e-05
10.539,-0.00010677
10.543,-0.000621
10.547,4.1562e-05
10.551,-0.00012424
10.555,-0.0005195
10.559,-0.00045854
10.563,-0.00032959
10.566,-0.00016163
10.57,-0.0006694
10.574,-0.00016189
10.578,0.00011369
10.582,-0.00023811
10.586,-0.00034787
10.59,1.3417e-05
10.594,0.00030366
10.598,-0.00023468
10.602,-0.0002333
10.605,-0.0005685
10.609,-0.00040115
10.613,0.00016079
10.617,-9.602e-05
10.621,0.00020722
10.625,0.00016254
10.629,4.5887e-05
10.633,0.00017344
10.637,0.00043577
10.641,0.00010298
10.645,5.7965e-05
10.648,-9.605e-05
10.652,-0.00050895
10.656,-0.0002415
10.66,5.257e-05
10.664,-0.00046182
10.668,8.559e-05
10.672,2.1229e-05
10.676,-6.87e-05
10.68,-3.876e-06
10.684,-0.00010149
10.688,-0.00010995
10.691,-9.202e-05
10.695,0.00025458
10.699,-9.422e-05
10.703,-0.0009916
10.707,-0.00023471
10.711,-7.1155e-06
10.715,0.00024425
10.719,0.00037383
10.723,-0.00046245
10.727,0.00013016
10.73,-5.7475e-05
10.734,-0.00021301
10.738,-0.00012588
10.742,-0.00013998
10.746,-7.776e-05
10.75,-4.3017e-05
10.754,-0.00036551
10.758,-0.00049867
10.762,0.00021199
10.766,-0.00020652
10.77,0.0003722
10.773,-0.00045372
10.777,-0.00033534
10.781,0.00038109
10.785,0.00038332
10.789,-0.00046831
10.793,-2.104e-05
10.797,0.00038811
10.801,0.00038822
10.805,-0.00053975
10.809,0.0004802
10.813,0.00013461
10.816,-2.3893e-05
10.82,-0.00018479
10.824,-0.0004434
10.828,-6.324e-05
10.832,-0.00018338
10.836,0.00072545
10.84,-2.65e-05
10.844,-0.00016028
10.848,-0.00011029
10.852,-0.00032728
10.855,0.00061925
10.859,0.00011286
10.863,-8.198e-05
10.867,0.00029431
10.871,-0.00010891
10.875,-0.00012766
10.879,-0.00028808
10.883,-0.0003092
10.887,0.0004742
10.891,0.00017695
10.895,-6.5115e-05
10.898,0.0005063
10.902,-8.808e-05
10.906,5.5195e-06
10.91,-0.0006006
10.914,6.6685e-05
10.918,-0.0006168
10.922,-0.00045883
10.926,0.00022189
10.93,6.31e-06
10.934,-0.00043001
10.938,-0.00026557
10.941,-3.6226e-05
10.945,-4.9211e-05
10.949,-0.0007297
10.953,-0.0005465
10.957,-0.0007418
10.961,-0.00013656
10.965,-0.0007179
10.969,0.00013722
10.973,-0.00047049
10.977,-0.00051155
10.98,0.00050745
10.984,0.00063485
10.988,-0.00042175
10.992,-0.0001462
10.996,0.00056045
11,-0.00032578
11.004,0.00046961
11.008,0.00014762
11.012,-0.00012798
11.016,-0.00027695
11.02,0.00044473
11.023,9.976e-05
11.027,-0.00036851
11.031,4.8068e-06
11.035,-0.00043169
11.039,-5.6715e-05
11.043,0.00044031
11.047,8.894e-05
11.051,-0.00037161
11.055,1.1517e-05
11.059,-0.00036836
11.063,0.00058355
11.066,-0.0007698
11.07,-0.00036982
11.074,0.00013826
11.078,-0.00042115
11.082,-0.00012239
11.086,0.00010268
11.09,0.00031315
11.094,-0.00046413
11.098,-0.00020216
11.102,-0.00031458
11.105,-0.00019363
11.109,-2.7921e-05
11.113,-0.00038258
11.117,0.0001143
11.121,-2.0703e-05
11.125,-0.00033854
11.129,-7.066e-05
11.133,0.0001854
11.137,0.00019438
11.141,8.3105e-05
11.145,-0.00017637
11.148,-0.00037669
11.152,-8.443e-05
11.156,-0.0003342
11.16,-0.00028968
11.164,0.00015563
11.168,0.00034411
11.172,4.7763e-05
11.176,0.00056615
11.18,-0.0007
11.184,-0.00015292
11.188,-0.0001293
11.191,0.00040704
11.195,1.4708e-05
11.199,-0.00027398
11.203,4.0369e-05
11.207,7.555e-05
11.211,-8.3355e-05
11.215,-0.00086165
11.219,0.00021887
11.223,-0.0013773
11.227,-0.00010719
11.23,-0.0007002
11.234,-0.0002843
11.238,0.00033047
11.242,-0.00034603
11.246,0.0005191
11.25,0.00012774
11.254,-0.0002207
11.258,-0.00043998
11.262,-0.00028653
11.266,2.5768e-05
11.27,-0.00094425
11.273,0.00010959
11.277,-1.114e-05
11.281,0.00017801
11.285,0.00061075
11.289,-0.00023069
11.293,-0.00046848
11.297,0.00028751
11.301,0.00017872
11.305,-0.00019386
11.309,-0.00035493
11.313,-5.52e-05
11.316,-0.0005396
11.32,-0.00011632
11.324,-0.00037045
11.328,-0.00044608
11.332,0.00017067
11.336,-0.00017473
11.34,0.00028447
11.344,-0.00057635
11.348,-9.8465e-05
11.352,-0.0005405
11.355,5.9825e-05
11.359,0.00030912
11.363,0.00020982
11.367,-0.0009045
11.371,7.8435e-05
11.375,-0.00016359
11.379,-4.8745e-05
11.383,-0.00035698
11.387,-0.00074155
11.391,0.00016346
11.395,-0.0003272
11.398,-0.00026196
11.402,-8.425e-05
11.406,0.00075485
11.41,0.00067145
11.414,-0.00060265
11.418,-0.00030175
11.422,0.00021511
11.426,-0.00086975
11.43,0.0002977
11.434,-0.00025989
11.438,0.00034111
11.441,-0.0004669
11.445,-0.00048026
11.449,0.00066935
11.453,6.61e-05
11.457,-0.00024447
11.461,-0.00049536
11.465,0.00026214
11.469,-6.605e-06
11.473,-0.0009276
11.477,-0.00044433
11.48,0.00092985
11.484,-0.00011765
11.488,-0.0008134
11.492,-0.00041513
11.496,-0.00024755
11.5,0.00014463
11.504,-0.00016404
11.508,-7.874e-05
11.512,-0.00012992
11.516,-0.00047097
11.52,0.00027796
11.523,-0.00026792
11.527,-0.00030209
11.531,-6.746e-05
11.535,-0.00015842
11.539,-0.00031868
11.543,-9.0155e-05
11.547,0.0006106
11.551,5.3905e-05
11.555,-0.00036898
11.559,-0.00044346
11.563,-0.00021836
11.566,-0.00068885
11.57,0.00051535
11.574,-5.7555e-05
11.578,-0.00054145
11.582,-8.752e-05
11.586,-0.00063875
11.59,8.2055e-05
11.594,-0.00018085
11.598,-9.345e-05
11.602,2.7154e-05
11.605,0.00020552
11.609,-0.0003827
11.613,-0.00061995
11.617,-0.00014642
11.621,-0.00041002
11.625,2.3769e-05
11.629,-0.0007853
11.633,0.00017583
11.637,-1.4032e-05
11.641,-0.00050925
11.645,-0.00022446
11.648,0.00018409
11.652,0.0007422
11.656,-0.00024547
11.66,0.00036133
11.664,-0.00043647
11.668,-6.28e-05
11.672,-0.00021247
11.676,-2.1888e-05
11.68,-0.00032135
11.684,-0.00065055
11.688,-0.00024617
11.691,2.6905e-06
11.695,-0.00033446
11.699,-0.00022424
11.703,-2.1017e-05
11.707,2.3678e-05
11.711,-0.00042879
11.715,-0.00026447
11.719,0.00014072
11.723,-4.5514e-05
11.727,-0.0006336
11.73,0.00039468
11.734,-0.00036865
11.738,-0.00039913
11.742,-0.00066035
11.746,-0.00020294
11.75,-0.00020815
11.754,-0.00029236
11.758,-0.00047928
11.762,-0.0007715
11.766,0.00088005
11.77,0.00034523
11.773,-0.00031322
11.777,-0.00022868
11.781,-6.371e-05
11.785,-0.00019791
11.789,-0.0003983
11.793,0.00013122
11.797,-0.0006026
11.801,0.00049208
11.805,-0.00082215
11.809,-0.00031213
11.813,0.00010992
11.816,-0.00016034
11.82,-0.00073925
11.824,0.0001115
11.828,-0.00016143
11.832,-0.00050755
11.836,-7.1525e-05
11.84,6.3525e-05
11.844,0.00058175
11.848,-0.00021106
11.852,-0.00027343
11.855,-0.00034588
11.859,-0.0008534
11.863,2.8759e-06
11.867,-0.0009182
11.871,-0.00029504
11.875,-0.00029964
11.879,9.8815e-05
11.883,-0.0011739
11.887,0.00013704
11.891,-0.00036639
11.895,-0.00063855
11.898,-0.00018668
11.902,-0.00010605
11.906,-0.00034501
11.91,-0.0007213
11.914,0.000219
11.918,-0.00014162
11.922,-0.00046272
11.926,0.00021834
11.93,-7.8765e-05
11.934,-0.00065245
11.938,1.9384e-05
11.941,-0.00083235
11.945,-0.0005716
11.949,-0.00014689
11.953,-5.9795e-05
11.957,-0.00018449
11.961,-0.00089375
11.965,8.3435e-05
11.969,0.00024947
11.973,0.00022807
11.977,-0.00037583
11.98,-0.00030835
11.984,-0.00053095
11.988,-9.135e-05
11.992,-0.0001027
11.996,-0.00047629
12,0.0001134
12.004,8.661e-05
12.008,1.9917e-05
12.012,-0.00047274
12.016,-0.0006719
12.02,3.9019e-05
12.023,0.00032513
12.027,-0.0006402
12.031,-0.0009647
12.035,0.00032192
12.039,-0.00021095
12.043,0.00022267
12.047,0.00014898
12.051,-0.0006366
12.055,-0.00036448
12.059,-0.0005118
12.063,-0.00015612
12.066,0.0001915
12.07,-0.00020086
12.074,-0.00096225
12.078,0.0002178
12.082,-0.00021783
12.086,-0.00038198
12.09,-0.0009643
12.094,-8.919e-05
12.098,-0.00013335
12.102,-9.5985e-05
12.105,-0.00058975
12.109,-0.00045874
12.113,-0.00051865
12.117,0.00043837
12.121,-0.00048843
12.125,-0.00027717
12.129,-0.00053295
12.133,9.521e-05
12.137,-0.00023539
12.141,-0.00020535
12.145,0.00010323
12.148,1.1725e-05
12.152,5.11e-05
12.156,-0.0009817
12.16,-0.00014963
12.164,0.00011809
12.168,-9.1265e-05
12.172,0.00011602
12.176,0.00055995
12.18,0.0002614
12.184,-0.00057235
12.188,-0.00046889
12.191,-0.00022116
12.195,-0.00040721
12.199,-0.00020698
12.203,0.00025862
12.207,-0.00036011
12.211,-0.00027349
12.215,-0.00025808
12.219,5.1485e-05
12.223,0.00016957
12.227,-0.0002564
12.23,-0.00031633
12.234,0.0001305
12.238,6.2945e-05
12.242,-1.534e-05
12.246,0.00096675
12.25,-0.00018233
12.254,-8.2165e-05
12.258,-0.00024263
12.262,-3.8737e-06
12.266,-0.00041315
12.27,0.00012627
12.273,0.00041687
12.277,-0.00019771
12.281,-0.00024917
12.285,-0.00042123
12.289,-0.00038691
12.293,-0.0008202
12.297,-0.00023681
12.301,-0.0005311
12.305,0.00022089
12.309,-0.00017327
12.313,-0.00021485
12.316,0.00025498
12.32,-0.0008704
12.324,-0.0001263
12.328,-0.0006146
12.332,-0.00046465
12.336,-0.00014326
12.34,8.0945e-05
12.344,-0.0005321
12.348,-4.3901e-05
12.352,0.00027371
12.355,-0.0005446
12.359,-0.0005909
12.363,-0.00024033
12.367,-1.0057e-05
12.371,-0.00022736
12.375,-0.00051385
12.379,-0.00018219
12.383,-0.00014469
12.387,-0.00036163
12.391,-0.0005701
12.395,3.775e-05
12.398,-1.576e-05
12.402,-1.3559e-05
12.406,7.015e-05
12.41,0.00033042
12.414,0.00043892
12.418,0.0006274
12.422,0.0016924
12.426,0.0014018
12.43,0.0011057
12.434,0.0017588
12.438,0.0025026
12.441,0.0021109
12.445,0.0030754
12.449,0.0022849
12.453,0.0023732
12.457,0.0023202
12.461,0.0031158
12.465,0.0024995
12.469,0.0028429
12.473,0.0021017
12.477,0.0024739
12.48,0.0029058
12.484,0.0022196
12.488,0.0026905
12.492,0.0028661
12.496,0.0032989
12.5,0.0028939
12.504,0.0029994
12.508,0.0025378
12.512,0.0024576
12.516,0.0026811
12.52,0.0023432
12.523,0.0030517
12.527,0.0029233
12.531,0.0029813
12.535,0.0030769
12.539,0.0025815
12.543,0.0024031
12.547,0.0027805
12.551,0.0029909
12.555,0.0028789
12.559,0.0029057
12.563,0.0031046
12.566,0.0026815
12.57,0.0030107
12.574,0.0025899
12.578,0.0028817
12.582,0.002113
12.586,0.0031594
12.59,0.0019911
12.594,0.002697
12.598,0.0025098
12.602,0.002232
12.605,0.0027696
12.609,0.0027742
12.613,0.0031566
12.617,0.0027021
12.621,0.0028516
12.625,0.0027276
12.629,0.0031582
12.633,0.0030409
12.637,0.0026496
12.641,0.0026948
12.645,0.0032822
12.648,0.0025656
12.652,0.0029454
12.656,0.0023194
12.66,0.0023477
12.664,0.0029123
12.668,0.0028324
12.672,0.0029801
12.676,0.00239
12.68,0.0029841
12.684,0.0026948
12.688,0.002625
12.691,0.0032447
12.695,0.0031604
12.699,0.0018615
12.703,0.0027894
12.707,0.0023691
12.711,0.0025695
12.715,0.0024559
12.719,0.0032584
12.723,0.0031269
12.727,0.0028893
12.73,0.0029472
12.734,0.0028654
12.738,0.0029482
12.742,0.0027954
12.746,0.0026413
12.75,0.0028808
12.754,0.0025895
12.758,0.0025593
12.762,0.0026052
12.766,0.0026729
12.77,0.0027111
12.773,0.0036077
12.777,0.0022843
12.781,0.0023416
12.785,0.0028107
12.789,0.0027076
12.793,0.0024671
12.797,0.0028373
12.801,0.0029805
12.805,0.0022955
12.809,0.0025467
12.813,0.0022242
12.816,0.0027018
12.82,0.0027292
12.824,0.0029186
12.828,0.0023045
12.832,0.0028072
12.836,0.002663
12.84,0.0032124
12.844,0.0028291
12.848,0.0025251
12.852,0.0026247
12.855,0.0025053
12.859,0.0031941
12.863,0.0024978
12.867,0.0021073
12.871,0.0026051
12.875,0.0030849
12.879,0.0029219
12.883,0.0027533
12.887,0.003334
12.891,0.0025011
12.895,0.002805
12.898,0.0024084
12.902,0.0024407
12.906,0.0026004
12.91,0.002955
12.914,0.0034577
12.918,0.0030208
12.922,0.0023675
12.926,0.0026813
12.93,0.002564
12.934,0.0026601
12.938,0.0031817
12.941,0.0028961
12.945,0.0031099
12.949,0.0029691
12.953,0.0024727
12.957,0.0030808
12.961,0.0022741
12.965,0.003035
12.969,0.0029652
12.973,0.0031434
12.977,0.0022538
12.98,0.002686
12.984,0.0027677
12.988,0.0028018
12.992,0.0030825
12.996,0.0030274
13,0.003017
13.004,0.0028554
13.008,0.0033886
13.012,0.0026826
13.016,0.0028327
13.02,0.0025914
13.023,0.0027719
13.027,0.0030497
13.031,0.0023599
13.035,0.0028621
13.039,0.0025343
13.043,0.0030695
13.047,0.0020896
13.051,0.0020849
13.055,0.0033429
13.059,0.0027114
13.063,0.0020697
13.066,0.0021769
13.07,0.0027547
13.074,0.0029084
13.078,0.002931
13.082,0.0031954
13.086,0.0029352
13.09,0.0027843
13.094,0.0031698
13.098,0.003516
13.102,0.0027887
13.105,0.0026897
13.109,0.0031414
13.113,0.0025974
13.117,0.0022563
13.121,0.0027468
13.125,0.0028741
13.129,0.0028407
13.133,0.0023951
13.137,0.0025808
13.141,0.0025539
13.145,0.0031347
13.148,0.0027533
13.152,0.00303
13.156,0.0030103
13.16,0.0027267
13.164,0.0020895
13.168,0.0029137
13.172,0.0030319
13.176,0.0025175
13.18,0.0027812
13.184,0.0026369
13.188,0.0034013
13.191,0.0027942
13.195,0.0028788
13.199,0.0024336
13.203,0.0025379
13.207,0.0023112
13.211,0.0030438
13.215,0.0030017
13.219,0.0025011
13.223,0.0038261
13.227,0.0031419
13.23,0.002969
13.234,0.0035063
13.238,0.001959
13.242,0.0027909
13.246,0.0028106
13.25,0.0028888
13.254,0.0024526
13.258,0.0030102
13.262,0.0020425
13.266,0.002867
13.27,0.0029866
13.273,0.0028201
13.277,0.0029679
13.281,0.0025747
13.285,0.0030445
13.289,0.0027217
13.293,0.0022692
13.297,0.0027456
13.301,0.0026347
13.305,0.0024904
13.309,0.003031
13.313,0.0028671
13.316,0.002763
13.32,0.0026588
13.324,0.0034432
13.328,0.003262
13.332,0.0027766
13.336,0.0028702
13.34,0.0033712
13.344,0.0034689
13.348,0.0032253
13.352,0.0027235
13.355,0.0026381
13.359,0.0031163
13.363,0.0025514
13.367,0.0024827
13.371,0.0027373
13.375,0.0031997
13.379,0.0029144
13.383,0.0029396
13.387,0.0032449
13.391,0.0029246
13.395,0.0024338
13.398,0.0031291
13.402,0.0029945
13.406,0.0027887
13.41,0.002667
13.414,0.0026138
13.418,0.0027928
13.422,0.0025167
13.426,0.0026212
13.43,0.0022822
13.434,0.0026307
13.438,0.0025735
13.441,0.003024
13.445,0.0033311
13.449,0.0031719
13.453,0.0031482
13.457,0.0029576
13.461,0.0028043
13.465,0.00271
13.469,0.0019625
13.473,0.002246
13.477,0.0012358
13.48,0.0015866
13.484,0.00079925
13.488,0.00050225
13.492,0.00046498
13.496,-2.751e-05
13.5,0.00027514
13.504,0.0005305
13.508,-4.5828e-05
13.512,0.00016063
13.516,2.1883e-05
13.52,0.00040021
13.523,-6.193e-05
13.527,0.00012124
13.531,0.00090495
13.535,0.00044034
13.539,-0.00030107
13.543,0.00041782
13.547,-0.00030645
13.551,3.0485e-05
13.555,0.00014197
13.559,0.00036058
13.563,-7.902e-05
13.566,0.00025182
13.57,0.0006793
13.574,-0.00063365
13.578,-0.00035542
13.582,0.00043587
13.586,-9.7095e-05
13.59,-7.9215e-06
13.594,0.00033427
13.598,0.0007958
13.602,-0.00045079
13.605,-0.00031622
13.609,-3.0208e-05
13.613,-1.2364e-05
13.617,1.6304e-05
13.621,-0.00013795
13.625,0.00040136
13.629,-0.00035109
13.633,4.3567e-05
13.637,0.00032083
13.641,0.00010032
13.645,-0.00025799
13.648,-2.1626e-06
13.652,-0.0001627
13.656,-0.00026521
13.66,0.00042666
13.664,-0.00011608
13.668,-0.00024219
13.672,-0.00029615
13.676,2.0946e-05
13.68,-0.0005477
13.684,-0.0006021
13.688,4.3517e-05
13.691,-0.0004866
13.695,-0.00017742
13.699,0.00023392
13.703,0.00028255
13.707,0.00049936
13.711,-0.00040733
13.715,0.00024905
13.719,5.967e-05
13.723,0.00038975
13.727,3.1612e-05
13.73,0.00025227
13.734,0.00037791
13.738,-0.00016191
13.742,-0.00017536
13.746,-0.00048312
13.75,-4.8358e-05
13.754,0.00010315
13.758,-0.00028926
13.762,-3.1563e-06
13.766,-0.00015512
13.77,-0.00018137
13.773,0.00024745
13.777,0.00026121
13.781,0.000379
13.785,-0.00041081
13.789,-7.6505e-05
13.793,0.00020134
13.797,-0.00048934
13.801,0.00064895
13.805,5.294e-05
13.809,-0.00021604
13.813,0.00035061
13.816,0.00012806
13.82,4.0581e-05
13.824,-0.00023508
13.828,-0.00061925
13.832,-0.00033852
13.836,-0.00022869
13.84,0.00015937
13.844,0.0002195
13.848,-0.00027067
13.852,0.00030398
13.855,0.0002485
13.859,-3.4489e-05
13.863,-0.00033254
13.867,0.00031137
13.871,-5.7235e-05
13.875,-0.00037507
13.879,6.9685e-05
13.883,0.00016541
13.887,-0.00053445
13.891,0.00064615
13.895,-0.0007679
13.898,-0.0005794
13.902,0.00043864
13.906,0.00012683
13.91,-0.00013638
13.914,1.927e-05
13.918,0.00027021
13.922,-0.00030104
13.926,0.00032787
13.93,0.00024181
13.934,-2.2223e-05
13.938,6.268e-05
13.941,-0.00022443
13.945,-0.00030296
13.949,-0.00013825
13.953,0.00035869
13.957,-9.594e-05
13.961,-0.00017639
13.965,-0.0003646
13.969,-0.00041517
13.973,2.2105e-06
13.977,0.00037283
13.98,0.00044899
13.984,0.00021529
13.988,-9.362e-05
13.992,-0.00011894
13.996,0.00013616
14,0.0003376
14.004,0.00035445
14.008,-0.0007316
14.012,1.0496e-05
14.016,-0.00030587
14.02,-0.00012369
14.023,0.00066045
14.027,-0.00022712
14.031,-0.0005495
14.035,0.00010472
14.039,-5.8895e-06
14.043,-0.00011166
14.047,0.00034559
14.051,0.00023672
14.055,0.00017319
14.059,-5.35e-05
14.063,0.00017138
14.066,-5.394e-05
14.07,0.00011476
14.074,0.00025214
14.078,0.00016826
14.082,-0.00018834
14.086,-0.00013731
14.09,-0.00031128
14.094,0.00041257
14.098,5.256e-05
14.102,-0.00017118
14.105,0.00029761
14.109,-0.00012752
14.113,0.00020497
14.117,0.00057755
14.121,0.00036726
14.125,-2.6138e-05
14.129,-1.433e-05
14.133,0.0007075
14.137,-3.8941e-05
14.141,0.00012961
14.145,0.00014298
14.148,0.00036139
14.152,0.0001178
14.156,0.00017744
14.16,0.00016589
14.164,0.0010042
14.168,0.00036277
14.172,-0.00025824
14.176,-0.00037997
14.18,-0.0005208
14.184,0.00070125
14.188,-0.00023799
14.191,0.0004027
14.195,0.00023996
14.199,-0.00049025
14.203,0.0007629
14.207,0.00024227
14.211,0.00069175
14.215,0.00017245
14.219,0.00011844
14.223,-0.00030306
14.227,7.0125e-05
14.23,0.00010134
14.234,-0.00049157
14.238,3.1988e-05
14.242,9.019e-05
14.246,-0.00022576
14.25,0.00017446
14.254,-0.00039692
14.258,-0.00016792
14.262,7.394e-05
14.266,-0.00017808
14.27,0.00018182
14.273,-9.9485e-05
14.277,-0.00028262
14.281,0.00035671
14.285,0.00024388
14.289,0.00024001
14.293,0.00028595
14.297,0.00040363
14.301,0.00039643
14.305,5.3855e-05
14.309,-0.00012422
14.313,-1.3136e-05
14.316,0.00045335
14.32,-0.00041853
14.324,-0.00020453
14.328,0.00035609
14.332,0.00028175
14.336,-0.00019375
14.34,-9.0225e-05
14.344,-6.924e-05
14.348,-0.00010805
14.352,-0.00087095
14.355,-0.00015464
14.359,0.00010915
14.363,0.00086985
14.367,-0.00051125
14.371,-0.00021641
14.375,-0.00012603
14.379,-0.00032129
14.383,-0.00022486
14.387,-0.0006651
14.391,-2.1924e-05
14.395,-0.00016235
14.398,0.0002131
14.402,4.6302e-05
14.406,0.00040372
14.41,0.00060035
14.414,7.18e-05
14.418,-0.00040522
14.422,0.00012549
14.426,0.00054225
14.43,2.2993e-05
14.434,0.00020072
14.438,-0.00027446
14.441,0.00060015
14.445,0.00020442
14.449,-9.668e-05
14.453,-0.0005519
14.457,-0.00021797
14.461,-0.00035293
14.465,-0.00017641
14.469,0.00011248
14.473,0.00028144
14.477,4.8725e-05
14.48,3.639e-05
14.484,0.00016018
14.488,0.0009943
14.492,0.00020889
14.496,0.00018014
14.5,0.00072815
14.504,0.00023939
14.508,2.45e-06
14.512,0.0005971
14.516,0.00016387
14.52,0.00038216
14.523,0.0006409
14.527,0.0006392
14.531,-0.00018814
14.535,-0.00042982
14.539,0.00018227
14.543,0.0010347
14.547,0.00054695
14.551,0.00041629
14.555,0.00041582
14.559,0.00083675
14.563,0.00058505
14.566,0.00063425
14.57,-0.00027812
14.574,0.00038886
14.578,0.00043993
14.582,0.00010651
14.586,0.00037799
14.59,0.00015074
14.594,0.00065375
14.598,0.00013229
14.602,0.00078685
14.605,0.00030249
14.609,0.00062395
14.613,0.0011016
14.617,0.00030145
14.621,0.00079005
14.625,-0.00013146
14.629,0.0008823
14.633,-0.00019544
14.637,0.00020618
14.641,0.00011283
14.645,-0.00017927
14.648,-0.00023887
14.652,0.00044608
14.656,-0.00028164
14.66,-0.00027314
14.664,0.00059225
14.668,0.00018804
14.672,0.00031891
14.676,-0.00013339
14.68,0.00011972
14.684,0.00030451
14.688,0.00026274
14.691,0.0008416
14.695,-9.3625e-06
14.699,0.00015484
14.703,0.00049369
14.707,0.000523
14.711,-0.00052235
14.715,2.6621e-05
14.719,-8.0245e-05
14.723,0.00015223
14.727,0.00034335
14.73,0.00032417
14.734,0.0005755
14.738,0.00033261
14.742,0.00028388
14.746,0.0005011
14.75,0.00031141
14.754,-0.00031413
14.758,0.00019071
14.762,-0.00043143
14.766,0.0005511
14.77,-0.000581
14.773,-2.5627e-05
14.777,0.00020357
14.781,0.00015456
14.785,0.00082875
14.789,0.00017642
14.793,-6.587e-05
14.797,0.0003547
14.801,-0.00028168
14.805,0.00033717
14.809,0.00023412
14.813,9.7075e-06
14.816,-6.549e-05
14.82,-0.00025798
14.824,-0.0004912
14.828,3.2746e-05
14.832,0.0004647
14.836,-5.944e-05
14.84,0.00075125
14.844,-0.00012984
14.848,0.0009306
14.852,-8.332e-05
14.855,0.00018476
14.859,0.00064825
14.863,0.0005733
14.867,-0.00012846
14.871,0.00040785
14.875,-0.00023727
14.879,-0.00043718
14.883,0.00040473
14.887,-0.00044191
14.891,-0.00059455
14.895,0.00012643
14.898,0.00062125
14.902,0.00054635
14.906,-0.00042461
14.91,0.00011063
14.914,0.00037997
14.918,0.00044285
14.922,0.00065455
14.926,0.00066765
14.93,0.0004123
14.934,-0.0003933
14.938,0.00012311
14.941,-0.00038179
14.945,0.0005378
14.949,0.00071305
14.953,-0.00061495
14.957,0.00038491
14.961,-3.2772e-05
14.965,-7.915e-05
14.969,-0.00022104
14.973,0.0005443
14.977,0.00023656
14.98,6.0225e-05
14.984,0.00024827
14.988,0.00045569
14.992,-0.00021331
14.996,-0.00018859
15,0.00033654
15.004,0.00065685
15.008,0.0005426
15.012,6.395e-05
15.016,-0.00036339
15.02,-0.0007207
15.023,-0.00022253
15.027,0.00049983
15.031,-9.9115e-05
15.035,0.00019049
15.039,0.00016221
15.043,-0.000693
15.047,0.00052855
15.051,0.00080335
15.055,7.538e-05
15.059,0.00044389
15.063,-0.00017499
15.066,0.00030587
15.07,0.00084865
15.074,0.0005653
15.078,-0.00014157
15.082,-0.00024922
15.086,0.00013631
15.09,4.0244e-05
15.094,0.00010746
15.098,0.0005824
15.102,0.00021154
15.105,0.0007194
15.109,0.00011239
15.113,7.742e-05
15.117,0.00040357
15.121,0.00027422
15.125,5.059e-05
15.129,-0.00043555
15.133,-0.00026831
15.137,0.00034445
15.141,0.00031866
15.145,-0.00039156
15.148,0.00017136
15.152,0.00031739
15.156,-0.00028578
15.16,-0.00022685
15.164,0.0005409
15.168,-0.00051135
15.172,0.00025575
15.176,0.00043431
15.18,-0.00055155
15.184,3.1096e-05
15.188,-0.00034232
15.191,0.00010038
15.195,-8.599e-05
15.199,-0.00052495
15.203,0.00027551
15.207,0.00027027
15.211,-0.00015256
15.215,0.00026215
15.219,-0.00038931
15.223,-0.00034096
15.227,-0.00030516
15.23,6.693e-05
15.234,-8.183e-05
15.238,0.0007724
15.242,6.1835e-05
15.246,0.00027615
15.25,0.00027445
15.254,0.00020215
15.258,0.00014246
15.262,0.0005204
15.266,-0.00032721
15.27,0.00066115
15.273,0.0003179
15.277,-0.00034364
15.281,0.00044158
15.285,0.00045633
15.289,0.00063685
15.293,-0.0001136
15.297,0.000622
15.301,0.00014566
15.305,-0.00045581
15.309,-0.00020778
15.313,0.00039475
15.316,0.00069465
15.32,-0.00036521
15.324,7.539e-06
15.328,-0.00018699
15.332,0.0007143
15.336,-0.00025721
15.34,0.00054285
15.344,-0.00013716
15.348,0.00036631
15.352,-0.00037298
15.355,0.00062525
15.359,-0.00068685
15.363,0.00020232
15.367,0.00023327
15.371,-0.00020973
15.375,-0.00026563
15.379,0.00028694
15.383,-0.0002986
15.387,5.6265e-05
15.391,-0.0009288
15.395,-0.0006623
15.398,6.5235e-05
15.402,0.00048418
15.406,-0.00048854
15.41,0.0003363
15.414,0.0002681
15.418,-0.00012169
15.422,6.891e-05
15.426,0.00084315
15.43,-0.00043444
15.434,0.00022441
15.438,0.00012324
15.441,0.00016032
15.445,4.3366e-05
15.449,0.00014787
15.453,-3.2734e-05
15.457,-0.0005308
15.461,-0.00012527
15.465,0.00017535
15.469,0.00019001
15.473,0.00031109
15.477,0.00087535
15.48,-0.00050685
15.484,0.00030513
15.488,0.00010168
15.492,3.4797e-05
15.496,-0.00019553
15.5,1.1412e-05
15.504,0.0003067
15.508,0.00022538
15.512,-0.00048871
15.516,0.00039806
15.52,0.0001598
15.523,0.00073285
15.527,-0.000338
15.531,-0.00020472
15.535,-0.0005692
15.539,5.5725e-05
15.543,0.00041364
15.547,-9.876e-05
15.551,-0.00010459
15.555,-1.8943e-05
15.559,3.1338e-05
15.563,0.00044822
15.566,8.4885e-05
15.57,-0.00010374
15.574,0.00027497
15.578,-0.00044937
15.582,0.00022961
15.586,-6.4095e-05
15.59,0.00076415
15.594,-0.00021554
15.598,0.00017372
15.602,7.535e-05
15.605,-0.00034279
15.609,0.00034895
15.613,-0.00075205
15.617,-0.00065875
15.621,-0.00043748
15.625,0.00048761
15.629,0.00037894
15.633,-0.00040331
15.637,-1.6111e-05
15.641,-0.0002096
15.645,0.00013726
15.648,0.0007951
15.652,-0.00026284
15.656,0.0007315
15.66,-0.00012368
15.664,-0.00018736
15.668,0.00026399
15.672,0.00030527
15.676,0.00015783
15.68,-0.00045901
15.684,-0.00018741
15.688,-0.00025553
15.691,-0.00013675
15.695,-0.00023872
15.699,0.00018277
15.703,0.00038527
15.707,-6.5385e-05
15.711,0.00021434
15.715,0.00028168
15.719,5.6755e-05
15.723,-8.815e-05
15.727,-0.00018133
15.73,-0.00039565
15.734,-7.557e-05
15.738,8.0915e-05
15.742,-4.213e-05
15.746,9.615e-05
15.75,2.8218e-05
15.754,0.00024179
15.758,-0.00022258
15.762,-4.205e-05
15.766,8.8625e-05
15.77,-0.00012431
15.773,0.00011401
15.777,-0.00060725
15.781,0.0001856
15.785,0.00018801
15.789,2.3648e-05
15.793,-0.00010292
15.797,-0.00013472
15.801,-0.0005889
15.805,0.000396
15.809,0.00022826
15.813,-0.0003849
15.816,-0.00052505
15.82,-0.00013943
15.824,0.00023802
15.828,0.00029219
15.832,0.00018624
15.836,0.00026657
15.84,0.00061175
15.844,-0.00061565
15.848,0.00014915
15.852,-3.7886e-05
15.855,-0.00028252
15.859,0.00023957
15.863,-9.288e-06
15.867,0.00042537
15.871,-0.00035497
15.875,-0.00027913
15.879,0.00018327
15.883,-0.0002756
15.887,8.683e-05
15.891,-9.5495e-05
15.895,0.00043367
15.898,0.00019722
15.902,-0.00010493
15.906,-0.0001896
15.91,-0.0001073
15.914,0.00088425
15.918,2.3491e-05
15.922,-2.8892e-05
15.926,-2.959e-05
15.93,0.00056785
15.934,-0.0005951
15.938,0.00039297
15.941,-0.00027127
15.945,-0.00012477
15.949,0.0002083
15.953,-0.00035762
15.957,0.00013339
15.961,-3.3484e-05
15.965,-0.00049451
15.969,7.113e-05
15.973,0.00020817
15.977,0.00022709
15.98,-0.00019939
15.984,-4.6118e-06
15.988,0.00022235
15.992,0.00019195
15.996,-0.00013448
16,-0.00044817
16.004,9.5125e-05
16.008,0.00010878
16.012,0.0005263
16.016,-0.00054935
16.02,-0.00011837
16.023,0.00016926
16.027,-1.1776e-05
16.031,0.00074675
16.035,-9.952e-05
16.039,-0.00080935
16.043,0.00027682
16.047,-0.00048522
16.051,0.00046508
16.055,0.00013538
16.059,-0.00013425
16.063,-0.00036177
16.066,0.0006408
16.07,9.4245e-05
16.074,-0.00018706
16.078,-0.00025938
16.082,-7.843e-05
16.086,0.00042687
16.09,0.00065425
16.094,-1.6011e-05
16.098,0.00012213
16.102,8.4745e-05
16.105,-0.0006098
16.109,2.9094e-05
16.113,-0.00018791
16.117,-0.00015336
16.121,-4.6082e-05
16.125,-0.0010066
16.129,-0.000238
16.133,0.00029291
16.137,6.9135e-05
16.141,-0.00015823
16.145,-0.00010135
16.148,-0.00036931
16.152,-0.00024041
16.156,-0.00020375
16.16,-6.267e-05
16.164,0.00021719
16.168,1.262e-05
16.172,4.6712e-06
16.176,-0.00025103
16.18,0.00039747
16.184,0.00013584
16.188,0.00024829
16.191,0.00011804
16.195,0.00031826
16.199,0.000562
16.203,-0.00012718
16.207,0.00021902
16.211,0.00027167
16.215,3.3683e-05
16.219,0.00071745
16.223,-0.00030175
16.227,-0.00012733
16.23,7.029e-05
16.234,4.9376e-05
16.238,-4.0411e-05
16.242,-0.00013063
16.246,0.00033404
16.25,2.6882e-05
16.254,-0.00023093
16.258,0.0006639
16.262,0.00038066
16.266,0.00057925
16.27,3.3454e-05
16.273,0.00070725
16.277,0.00034122
16.281,-0.00063595
16.285,-0.00045484
16.289,0.00019007
16.293,-6.4765e-05
16.297,-8.121e-05
16.301,0.00034338
16.305,0.0005595
16.309,9.1035e-05
16.313,-6.1385e-06
16.316,0.00074245
16.32,-5.6895e-05
16.324,-0.00020854
16.328,-0.00025146
16.332,-0.00028921
16.336,1.3542e-05
16.34,-0.00030733
16.344,-0.00065225
16.348,-0.00044817
16.352,0.00015553
16.355,0.00037851
16.359,0.00040859
16.363,0.00079385
16.367,-0.00041104
16.371,0.00045382
16.375,1.4711e-06
16.379,-0.00019086
16.383,-0.00017452
16.387,0.00029182
16.391,0.00020774
16.395,-0.0006593
16.398,0.00034424
16.402,0.00027831
16.406,-9.1045e-05
16.41,-0.00034855
16.414,-0.00026966
16.418,-0.00043361
16.422,-1.6518e-05
16.426,-0.00014051
16.43,-0.00011822
16.434,6.6495e-05
16.438,-0.00011906
16.441,-0.0006147
16.445,-0.00022668
16.449,-0.00020146
16.453,-0.0006272
16.457,0.00028483
16.461,-0.0008052
16.465,9.8485e-05
16.469,-0.0001639
16.473,-0.00019155
16.477,0.0001701
16.48,-0.00015605
16.484,-0.00011363
16.488,-0.00032038
16.492,0.00041689
16.496,0.00041695
16.5,0.00037935
16.504,0.0004207
16.508,0.0006091
16.512,0.00073125
16.516,0.00075895
16.52,0.00096195
16.523,0.0005797
16.527,0.0008986
16.531,0.0011075
16.535,0.0006554
16.539,0.0008972
16.543,0.00081375
16.547,0.0013085
16.551,0.0010353
16.555,0.0012606
16.559,0.001101
16.563,0.0012419
16.566,0.00085015
16.57,0.00091815
16.574,0.0006477
16.578,0.0010015
16.582,0.0019505
16.586,0.00090155
16.59,0.0008559
16.594,0.0011787
16.598,0.00032191
16.602,0.0012691
16.605,0.0005632
16.609,0.0010555
16.613,0.0009454
16.617,0.000818
16.621,0.00058365
16.625,0.00098145
16.629,0.001229
16.633,0.0010705
16.637,0.0013202
16.641,0.00033223
16.645,0.00082545
16.648,0.00033586
16.652,0.0008484
16.656,0.0009949
16.66,0.00052925
16.664,0.0012537
16.668,0.0006338
16.672,0.0010249
16.676,0.00068395
16.68,0.00053925
16.684,0.00054385
16.688,0.00028502
16.691,0.001327
16.695,-8.434e-05
16.699,0.00031958
16.703,7.4055e-05
16.707,0.00030641
16.711,-0.00019649
16.715,0.001014
16.719,0.0008241
16.723,0.00045088
16.727,0.00035824
16.73,0.00035453
16.734,0.00072665
16.738,0.00011906
16.742,0.00099115
16.746,0.0008322
16.75,0.00076085
16.754,0.0011301
16.758,0.0010381
16.762,0.00080875
16.766,0.0009541
16.77,0.00090545
16.773,0.00073615
16.777,0.0013501
16.781,0.001377
16.785,0.0009691
16.789,0.0005712
16.793,0.0005114
16.797,0.0010091
16.801,0.0008232
16.805,0.0006272
16.809,0.00095995
16.813,0.00049327
16.816,0.0010316
16.82,0.00034795
16.824,4.3128e-05
16.828,0.0008363
16.832,0.00056035
16.836,0.0014447
16.84,0.0013836
16.844,0.00067805
16.848,0.0005522
16.852,0.0008214
16.855,0.0007936
16.859,0.001404
16.863,0.0007987
16.867,0.0013526
16.871,0.0013648
16.875,0.0018163
16.879,0.00078775
16.883,0.0007498
16.887,0.0015063
16.891,0.0006494
16.895,0.00026647
16.898,0.00093925
16.902,0.001089
16.906,0.0007911
16.91,0.00080585
16.914,0.00045969
16.918,0.0015611
16.922,0.00103
16.926,0.00076715
16.93,0.0011006
16.934,0.0012488
16.938,0.0005787
16.941,0.0010261
16.945,0.0007751
16.949,0.0015295
16.953,0.001002
16.957,0.0005469
16.961,0.0009026
16.965,0.0010974
16.969,0.0016785
16.973,0.00094765
16.977,0.0011333
16.98,0.0013517
16.984,0.0011003
16.988,0.00060415
16.992,0.00084625
16.996,0.0006659
17,0.0011504
17.004,0.0014545
17.008,0.00091705
17.012,0.0013138
17.016,0.0007072
17.02,0.001016
17.023,0.0008967
17.027,0.0015298
17.031,0.0010493
17.035,0.0012079
17.039,0.0008068
17.043,0.0006935
17.047,0.0010459
17.051,0.0006058
17.055,0.00040478
17.059,0.0007757
17.063,0.0014513
17.066,0.0007575
17.07,0.00098905
17.074,0.00071645
17.078,0.00021412
17.082,0.00094705
17.086,0.0015485
17.09,0.00083125
17.094,0.0005383
17.098,0.00059045
17.102,0.0010655
17.105,0.0007853
17.109,0.0012802
17.113,0.00083525
17.117,0.00019798
17.121,0.0007847
17.125,0.001198
17.129,0.0013151
17.133,0.0014099
17.137,0.0013089
17.141,0.00133
17.145,0.0016126
17.148,0.0014781
17.152,0.0009928
17.156,0.00076205
17.16,0.0008356
17.164,0.0011899
17.168,0.0013762
17.172,0.0008674
17.176,0.0014931
17.18,0.00070295
17.184,0.00079375
17.188,0.00081915
17.191,0.00071865
17.195,0.0012561
17.199,0.00087745
17.203,0.001593
17.207,0.00093175
17.211,0.0015918
17.215,7.501e-05
17.219,0.0010693
17.223,0.0010532
17.227,0.001651
17.23,0.0010719
17.234,0.0016164
17.238,0.0016575
17.242,0.0007635
17.246,0.00055265
17.25,0.0012682
17.254,0.0006711
17.258,0.0009028
17.262,0.00075915
17.266,0.0010012
17.27,0.0011812
17.273,0.0012265
17.277,0.0010266
17.281,0.0006473
17.285,0.00068455
17.289,0.0010864
17.293,0.0002059
17.297,0.00055455
17.301,0.00040605
17.305,0.0008341
17.309,0.0011147
17.313,0.0017761
17.316,0.00093885
17.32,0.00056535
17.324,0.0007855
17.328,0.0011097
17.332,0.0013084
17.336,0.0007819
17.34,0.0009383
17.344,0.0013551
17.348,0.0010129
17.352,0.00096285
17.355,0.00082045
17.359,0.00080585
17.363,0.0013199
17.367,0.0007601
17.371,0.00093155
17.375,0.00058135
17.379,0.0011587
17.383,0.0010328
17.387,0.0011022
17.391,0.0009397
17.395,0.0006903
17.398,0.0009244
17.402,0.00049947
17.406,0.0008292
17.41,0.0017573
17.414,0.0015245
17.418,0.0012326
17.422,0.0010759
17.426,0.0012127
17.43,0.0010617
17.434,0.00126
17.438,0.001364
17.441,0.00058135
17.445,0.000875
17.449,0.00092795
17.453,0.000733
17.457,0.0005697
17.461,0.0013666
17.465,0.0011539
17.469,0.00060125
17.473,0.0005584
17.477,0.0010873
17.48,0.00069435
17.484,0.00051105
17.488,0.00084005
17.492,0.00061945
17.496,0.0012087
17.5,0.0017156
17.504,0.00029281
17.508,0.0011859
17.512,0.0010313
17.516,0.0005646
17.52,0.0011609
17.523,0.00043547
17.527,-1.8229e-05
17.531,0.00012377
17.535,0.0005884
17.539,0.00039666
17.543,0.00048989
17.547,0.00021414
17.551,0.00041189
17.555,-0.0008005
17.559,-0.00024466
17.563,-0.00029937
17.566,-0.00021326
17.57,0.0001757
17.574,-0.00043755
17.578,-9.7685e-05
17.582,-0.00084835
17.586,-0.00048494
17.59,0.00017742
17.594,-0.00076945
17.598,0.0003474
17.602,-0.00032291
17.605,3.6843e-05
17.609,-0.0005654
17.613,0.00011167
17.617,-0.00017026
17.621,0.00025024
17.625,-0.00041498
17.629,-0.0005094
17.633,-0.00053765
17.637,0.00041738
17.641,-0.00039737
17.645,-0.00084275
17.648,7.0235e-05
17.652,-0.0002498
17.656,-0.00038177
17.66,-7.351e-05
17.664,5.626e-05
17.668,-0.00048354
17.672,-0.00021886
17.676,-0.00036719
17.68,-0.00046092
17.684,-8.707e-05
17.688,2.8347e-06
17.691,-0.00073065
17.695,0.00015581
17.699,-0.00017149
17.703,-0.00029369
17.707,-0.000759
17.711,-0.0002785
17.715,-0.00020669
17.719,-0.0001442
17.723,-0.00033685
17.727,0.00014277
17.73,0.00036938
17.734,0.00025749
17.738,-0.00025776
17.742,-4.9413e-05
17.746,-1.5108e-05
17.75,-0.00036967
17.754,-0.00014563
17.758,-0.00034314
17.762,-0.00010514
17.766,0.00044309
17.77,-0.00019059
17.773,-0.00038204
17.777,0.00036417
17.781,0.00018744
17.785,-0.0003046
17.789,-0.00037685
17.793,0.00038417
17.797,-0.00010388
17.801,-5.188e-05
17.805,2.5034e-06
17.809,-0.00034649
17.813,0.00026009
17.816,0.00070955
17.82,-0.0009966
17.824,-4.0253e-05
17.828,0.00022988
17.832,-0.00038262
17.836,-7.0005e-05
17.84,-4.4843e-05
17.844,-0.0003219
17.848,0.00013591
17.852,0.00031373
17.855,-3.617e-05
17.859,1.8049e-05
17.863,-0.00030346
17.867,0.0002854
17.871,-0.00014553
17.875,3.4824e-05
17.879,0.00028513
17.883,-0.00024299
17.887,-0.00020908
17.891,-0.00010367
17.895,-0.00020332
17.898,-0.0005588
17.902,7.1945e-05
17.906,-0.0006042
17.91,-0.00020764
17.914,-0.0006112
17.918,0.00033032
17.922,-0.00011436
17.926,1.5219e-05
17.93,-0.0002509
17.934,0.00040288
17.938,-0.00030046
17.941,0.00024877
17.945,0.00024722
17.949,-0.00034782
17.953,-9.0335e-06
17.957,-0.00011136
17.961,0.000599
17.965,-0.00049243
17.969,-0.0006949
17.973,-2.0815e-05
17.977,-0.00047067
17.98,-0.00033214
17.984,4.4111e-07
17.988,-0.00056515
17.992,0.000285
17.996,6.608e-05
18,0.00042644
18.004,-0.00018701
18.008,0.00023872
18.012,-0.0004922
18.016,-2.5741e-05
18.02,0.00027408
18.023,-0.00035959
18.027,-0.00010103
18.031,0.0004492
18.035,-0.00040082
18.039,-0.00051145
18.043,0.00021296
18.047,-0.00012756
18.051,-0.00051435
18.055,-0.00045005
18.059,-2.1916e-05
18.063,-6.7725e-05
18.066,-0.00028667
18.07,-8.641e-05
18.074,3.0475e-05
18.078,-0.00042648
18.082,-0.00027863
18.086,-0.00041976
18.09,0.00031169
18.094,-0.00061445
18.098,0.00040725
18.102,-0.00036555
18.105,-0.0001641
18.109,0.00017746
18.113,0.00010294
18.117,-0.00027576
18.121,0.00016069
18.125,-0.0005706
18.129,0.00033374
18.133,0.00025407
18.137,-0.00015065
18.141,-1.42e-05
18.145,0.00019107
18.148,-0.00026775
18.152,4.5511e-05
18.156,0.0001004
18.16,-7.558e-06
18.164,-0.00064025
18.168,-0.0002583
18.172,-0.0008415
18.176,-0.00028104
18.18,-0.00042559
18.184,-0.00017812
18.188,-6.303e-06
18.191,0.00015859
18.195,-0.00018221
18.199,-0.00011721
18.203,0.00022357
18.207,0.00031765
18.211,-7.153e-05
18.215,0.00014856
18.219,-0.00041957
18.223,0.00039695
18.227,-0.00039594
18.23,-0.00042703
18.234,4.3044e-05
18.238,-0.00016165
18.242,-0.0006931
18.246,0.000251
18.25,0.00011339
18.254,0.00044402
18.258,-4.1681e-05
18.262,9.731e-05
18.266,-0.00056165
18.27,0.0005043
18.273,0.0006897
18.277,-0.00027833
18.281,-0.00038537
18.285,0.00021478
18.289,-0.00054225
18.293,-9.008e-05
18.297,-0.00019478
18.301,0.00014544
18.305,-0.00083855
18.309,-9.1375e-05
18.313,-3.4586e-05
18.316,-0.0007486
18.32,-0.00017932
18.324,9.3015e-05
18.328,-0.0005899
18.332,-0.00025378
18.336,-8.324e-05
18.34,-0.00033784
18.344,0.00040658
18.348,0.00012683
18.352,-0.00034737
18.355,-2.668e-05
18.359,0.00025059
18.363,-6.6955e-05
18.367,3.674e-05
18.371,6.4285e-05
18.375,9.82e-05
18.379,-0.00062875
18.383,-0.00039761
18.387,-0.00028085
18.391,-0.00071965
18.395,-0.00065015
18.398,-2.8197e-05
18.402,-2.8092e-05
18.406,0.00017136
18.41,-2.726e-05
18.414,-0.00042931
18.418,-0.00016631
18.422,-0.00041719
18.426,0.00013968
18.43,-0.0007032
18.434,0.00013437
18.438,7.5295e-06
18.441,0.00010628
18.445,-0.00037058
18.449,-9.624e-05
18.453,-0.0001808
18.457,-0.0006999
18.461,8.3355e-06
18.465,-1.6343e-06
18.469,-0.00041476
18.473,0.00029155
18.477,-0.00076865
18.48,-0.00029147
18.484,-0.00028932
18.488,-0.00040996
18.492,-0.00039769
18.496,5.9295e-06
18.5,-0.00047129
18.504,-0.00013202
18.508,-0.00029973
18.512,-0.00018997
18.516,0.0005389
18.52,-0.00034114
18.523,0.00015335
18.527,-0.00015892
18.531,-0.00017206
18.535,-0.00085955
18.539,0.00018311
18.543,-9.7405e-05
18.547,-0.00026315
18.551,-4.2393e-05
18.555,-3.6787e-05
18.559,0.00070085
18.563,-0.00029981
18.566,-8.4025e-05
18.57,0.00021761
18.574,0.0007839
18.578,0.00022394
18.582,0.00053675
18.586,0.00042873
18.59,0.00044049
18.594,0.0006646
18.598,0.0010366
18.602,0.00028676
18.605,0.00013123
18.609,0.00029292
18.613,0.00010999
18.617,-0.0006091
18.621,0.00016002
18.625,0.00025525
18.629,6.197e-05
18.633,0.00010872
18.637,0.0006123
18.641,0.0001884
18.645,0.00012678
18.648,-0.00012189
18.652,-0.00011019
18.656,3.0146e-05
18.66,9.608e-05
18.664,0.00017877
18.668,0.0006133
18.672,0.00050925
18.676,-0.00039991
18.68,0.00063735
18.684,-0.00033871
18.688,0.000914
18.691,7.292e-05
18.695,-0.00015373
18.699,-0.0007149
18.703,-0.00014495
18.707,0.00053425
18.711,-0.00016517
18.715,-0.00018646
18.719,-0.00049668
18.723,-0.00044973
18.727,-0.00023891
18.73,9.4375e-05
18.734,-0.00076145
18.738,0.00020215
18.742,-0.00020775
18.746,0.00024143
18.75,-4.9671e-05
18.754,-0.00020833
18.758,0.0001243
18.762,0.00012506
18.766,0.00066275
18.77,-0.0005138
18.773,-0.00030347
18.777,-0.00048959
18.781,-0.00025893
18.785,-0.00023336
18.789,-0.00020453
18.793,-0.00020562
18.797,-0.00021168
18.801,-0.00010932
18.805,0.00012691
18.809,0.00036566
18.813,-0.00016295
18.816,0.00060785
18.82,0.00027054
18.824,0.00039876
18.828,-0.00037033
18.832,-0.0006626
18.836,0.00010135
18.84,0.00010189
18.844,-0.000633
18.848,-0.00057145
18.852,6.716e-05
18.855,0.00030495
18.859,0.00042216
18.863,-0.00037156
18.867,0.00017965
18.871,0.00019357
18.875,-3.0056e-05
18.879,-0.00039249
18.883,-0.00041864
18.887,0.00022294
18.891,-0.00064455
18.895,-0.00016304
18.898,-1.4422e-05
18.902,0.00032095
18.906,-0.00019039
18.91,-0.0005515
18.914,6.8665e-05
18.918,-0.00030495
18.922,0.00058
18.926,-0.00035476
18.93,1.2462e-05
18.934,0.0006744
18.938,0.000326
18.941,-5.1835e-05
18.945,0.0001227
18.949,0.00079905
18.953,0.00043831
18.957,-0.0005343
18.961,-6.3e-06
18.965,0.00030033
18.969,-0.0006203
18.973,2.5654e-05
18.977,-9.742e-05
18.98,3.2853e-05
18.984,-0.00034869
18.988,-0.000704
18.992,-0.00042995
18.996,0.00062085
19,-7.7855e-05
19.004,-0.00035806
19.008,0.0005065
19.012,0.00031861
19.016,-0.00030949
19.02,0.00037235
19.023,0.00037734
19.027,-0.00029906
19.031,0.00015462
19.035,-0.00017644
19.039,0.00039104
19.043,-0.00049928
19.047,-0.00019584
19.051,0.00024275
19.055,-7.0895e-05
19.059,0.00016514
19.063,0.0005788
19.066,-0.00018372
19.07,-0.0004176
19.074,0.0005258
19.078,-0.00017723
19.082,9.292e-05
19.086,-0.00022516
19.09,-0.00057775
19.094,-0.00036516
19.098,0.00042523
19.102,-0.00019248
19.105,-0.00010224
19.109,5.7e-05
19.113,0.00036835
19.117,5.785e-06
19.121,-0.00014354
19.125,-0.00036077
19.129,0.00013913
19.133,-0.00080945
19.137,-0.00048496
19.141,0.00019792
19.145,0.00010538
19.148,-0.00049557
19.152,0.00014987
19.156,0.00012527
19.16,-0.00046303
19.164,-7.2955e-05
19.168,0.0005186
19.172,-0.00021883
19.176,-0.00051505
19.18,2.2735e-05
19.184,-0.00022907
19.188,-0.00015891
19.191,0.0001098
19.195,-5.746e-05
19.199,-0.00017369
19.203,-0.00040197
19.207,-0.00032434
19.211,-0.00039402
19.215,-0.00024606
19.219,0.0005882
19.223,1.4992e-05
19.227,-0.00023301
19.23,-8.234e-05
19.234,5.495e-05
19.238,7.374e-05
19.242,9.694e-05
19.246,0.00037545
19.25,-0.00013055
19.254,0.00011284
19.258,-0.0002385
19.262,-0.00068455
19.266,-0.00023461
19.27,0.00046815
19.273,-0.00015489
19.277,0.0003387
19.281,0.00019875
19.285,-0.0002164
19.289,0.000679
19.293,0.00031675
19.297,0.0003286
19.301,-0.0003156
19.305,-0.00023131
19.309,0.00021412
19.313,0.00039759
19.316,-4.4732e-05
19.32,0.00056695
19.324,-7.9915e-05
19.328,0.00022749
19.332,-1.5099e-05
19.336,0.00037931
19.34,-0.00011738
19.344,-1.0433e-05
19.348,-0.0005324
19.352,0.0001073
19.355,3.2136e-05
19.359,0.0001875
19.363,0.00012019
19.367,-0.00023785
19.371,0.00022971
19.375,0.0009128
19.379,-0.00024098
19.383,0.00031384
19.387,-0.00021832
19.391,-0.00033114
19.395,-0.0004028
19.398,0.00019928
19.402,5.3865e-06
19.406,0.00029697
19.41,-8.5615e-05
19.414,-0.00043812
19.418,-9.1835e-05
19.422,-4.1198e-05
19.426,0.00021217
19.43,-0.00042038
19.434,-0.0006342
19.438,0.00018541
19.441,-0.00025034
19.445,-0.00015207
19.449,0.00021128
19.453,1.8224e-05
19.457,6.599e-05
19.461,0.00042332
19.465,0.00037868
19.469,-2.1423e-07
19.473,-0.00019366
19.477,-0.0004324
19.48,9.7345e-05
19.484,0.00080155
19.488,0.00035475
19.492,6.737e-05
19.496,-0.00039618
19.5,-0.00043875
19.504,-0.00019351
19.508,-0.001334
19.512,0.00012899
19.516,0.000413
19.52,6.1775e-06
19.523,-0.00015228
19.527,0.00043946
19.531,-0.00019266
19.535,-0.00025037
19.539,0.00027671
19.543,-5.3e-05
19.547,-0.00028062
19.551,0.00024972
19.555,-0.00021791
19.559,0.00048615
19.563,-0.00025604
19.566,-0.00023822
19.57,-0.00024754
19.574,0.00010124
19.578,0.00043511
19.582,9.9605e-05
19.586,0.00023873
19.59,0.00040472
19.594,-8.869e-05
19.598,0.00028932
19.602,-9.1015e-05
19.605,0.0006961
19.609,4.7327e-05
19.613,-0.00023559
19.617,-5.2635e-06
19.621,-0.00029776
19.625,-0.000575
19.629,8.9905e-05
19.633,4.9261e-05
19.637,0.00019505
19.641,-0.00034331
19.645,-0.00034287
19.648,-0.00024861
19.652,-0.00044764
19.656,0.00084565
19.66,1.6996e-05
19.664,-0.00034762
19.668,3.6607e-05
19.672,0.00032866
19.676,0.0001427
19.68,0.00023575
19.684,8.772e-05
19.688,-0.00061165
19.691,-0.00034495
19.695,0.00030259
19.699,-0.00013399
19.703,4.0568e-05
19.707,0.00016132
19.711,-0.00037948
19.715,6.2245e-05
19.719,-0.00015097
19.723,-0.00051715
19.727,0.00013902
19.73,-0.00030569
19.734,-0.00019331
19.738,-0.00049696
19.742,-0.00024405
19.746,0.00011722
19.75,0.0005097
19.754,-0.00045407
19.758,6.0485e-05
19.762,0.00011751
19.766,0.00029825
19.77,0.00037408
19.773,-0.00046065
19.777,-4.4898e-05
19.781,0.00037273
19.785,0.0001364
19.789,0.00044795
19.793,0.00039654
19.797,0.00081215
19.801,-0.0009249
19.805,-0.00010092
19.809,-9.4865e-05
19.813,-0.00047792
19.816,-0.0001647
19.82,0.00051385
19.824,2.4484e-05
19.828,0.00033897
19.832,0.0005766
19.836,-0.00010295
19.84,-0.00014406
19.844,-0.0004649
19.848,-9.817e-05
19.852,-0.00025363
19.855,-7.83e-05
19.859,-7.925e-05
19.863,-0.00025558
19.867,-0.0004027
19.871,-0.00013388
19.875,3.3217e-07
19.879,-0.00032639
19.883,0.00011203
19.887,-6.231e-05
19.891,-9.826e-05
19.895,0.00032405
19.898,0.00082515
19.902,0.00031593
19.906,0.00024764
19.91,2.4252e-05
19.914,6.941e-05
19.918,0.00022915
19.922,-0.00017305
19.926,-0.0005083
19.93,0.00016582
19.934,-0.00024108
19.938,0.00013901
19.941,-0.00029936
19.945,-0.00045113
19.949,-0.0005028
19.953,9.7085e-05
19.957,0.0006943
19.961,7.909e-05
19.965,0.00018416
19.969,6.06e-05
19.973,8.6625e-05
19.977,0.0008347
19.98,-0.00028536
19.984,-7.173e-05
19.988,-0.00025809
19.992,0.00022995
19.996,6.5445e-05
20,-0.00014406
20.004,0.00022831
20.008,-0.00039696
20.012,-6.621e-06
20.016,1.6097e-05
20.02,0.00049822
20.023,0.00013125
20.027,-4.6543e-05
20.031,-0.0005305
20.035,-0.00057335
20.039,0.000159
20.043,-0.00029298
20.047,-0.00012516
20.051,-0.00034086
20.055,3.7058e-05
20.059,5.798e-05
20.063,0.0005951
20.066,0.00061645
20.07,0.00033887
20.074,0.00033224
20.078,-0.00048028
20.082,0.00037146
20.086,-0.0004189
20.09,-0.00064975
20.094,0.001044
20.098,4.9561e-05
20.102,-0.00028577
20.105,-4.0474e-05
20.109,-1.4747e-05
20.113,-0.00076885
20.117,-0.00028684
20.121,0.00015925
20.125,-6.7805e-06
20.129,-0.0005986
20.133,-0.00017886
20.137,-5.787e-05
20.141,1.899e-05
20.145,-0.00061105
20.148,6.575e-05
20.152,0.0005124
20.156,-0.00059125
20.16,0.00012875
20.164,0.00044898
20.168,0.00010501
20.172,0.00017175
20.176,-0.00021274
20.18,-0.00011621
20.184,-0.00045614
20.188,-8.8885e-05
20.191,-0.00023101
20.195,-0.00025624
20.199,0.00049843
20.203,-4.8583e-05
20.207,0.00021661
20.211,0.00012421
20.215,-0.00037016
20.219,-0.0006798
20.223,-0.00051475
20.227,9.6595e-05
20.23,-0.00010048
20.234,0.00027804
20.238,-0.00012731
20.242,-0.00046942
20.246,1.8589e-05
20.25,0.00035894
20.254,5.0845e-05
20.258,-0.00011669
20.262,-0.00020215
20.266,0.00039731
20.27,0.00027711
20.273,-0.0001928
20.277,-0.0005127
20.281,-0.00035665
20.285,8.7195e-05
20.289,-0.00041217
20.293,-0.00015448
20.297,-4.8253e-05
20.301,-0.00022102
20.305,-0.00018807
20.309,-2.601e-05
20.313,-0.0001219
20.316,-0.00038844
20.32,0.00035214
20.324,-0.00023591
20.328,0.00044555
20.332,-5.642e-05
20.336,-6.11e-05
20.34,0.00048815
20.344,0.00010604
20.348,-0.0001427
20.352,-0.00030478
20.355,-0.0002053
20.359,0.00011038
20.363,0.0002615
20.367,-2.5609e-05
20.371,-0.00021761
20.375,7.967e-05
20.379,0.00020843
20.383,-0.00016304
20.387,0.00051425
20.391,-0.00010608
20.395,0.00035766
20.398,0.00039702
20.402,8.602e-05
20.406,4.429e-05
20.41,0.00038799
20.414,-0.0005553
20.418,9.357e-05
20.422,0.00010056
20.426,0.00019382
20.43,-0.00026634
20.434,-0.00047571
20.438,-0.0009368
20.441,0.0001621
20.445,0.00032777
20.449,-0.00022633
20.453,0.0007644
20.457,-0.00030314
20.461,-0.0005341
20.465,-0.00011321
20.469,-1.5563e-05
20.473,0.00019521
20.477,1.3243e-06
20.48,-0.00030898
20.484,-0.0005765
20.488,-0.0002453
20.492,-0.00051995
20.496,0.00021876
20.5,-7.1735e-05
20.504,-0.0006872
20.508,9.988e-05
20.512,-0.00035544
20.516,0.00044218
20.52,-3.2942e-05
20.523,-2.24e-06
20.527,-0.000416
20.531,-3.6321e-05
20.535,-0.00031604
20.539,-0.00041513
20.543,-0.00078755
20.547,-0.00065075
20.551,-0.001955
20.555,-0.0012495
20.559,-0.0011482
20.563,-0.0017895
20.566,-0.0017129
20.57,-0.0023145
20.574,-0.0022193
20.578,-0.0026499
20.582,-0.0021842
20.586,-0.0025467
20.59,-0.0023253
20.594,-0.0028992
20.598,-0.002953
20.602,-0.0028467
20.605,-0.0024536
20.609,-0.0038076
20.613,-0.0035476
20.617,-0.002501
20.621,-0.0022796
20.625,-0.0030292
20.629,-0.0024919
20.633,-0.0022191
20.637,-0.0029334
20.641,-0.0031715
20.645,-0.0031846
20.648,-0.0031093
20.652,-0.0027387
20.656,-0.0030853
20.66,-0.0023101
20.664,-0.0031566
20.668,-0.003295
20.672,-0.0028527
20.676,-0.0029626
20.68,-0.0028803
20.684,-0.0037806
20.688,-0.0030894
20.691,-0.0036809
20.695,-0.0029638
20.699,-0.0027555
20.703,-0.0026053
20.707,-0.0027522
20.711,-0.002844
20.715,-0.0027397
20.719,-0.0030365
20.723,-0.0030381
20.727,-0.0026783
20.73,-0.0026768
20.734,-0.0032572
20.738,-0.0037618
20.742,-0.0039766
20.746,-0.003776
20.75,-0.0035868
20.754,-0.0030961
20.758,-0.0035382
20.762,-0.0032942
20.766,-0.003127
20.77,-0.0037386
20.773,-0.0035402
20.777,-0.0034972
20.781,-0.0035104
20.785,-0.0033783
20.789,-0.0029412
20.793,-0.0033954
20.797,-0.002967
20.801,-0.0030891
20.805,-0.0031404
20.809,-0.0028654
20.813,-0.0024592
20.816,-0.0027062
20.82,-0.0037957
20.824,-0.0030589
20.828,-0.0036954
20.832,-0.0039705
20.836,-0.0036888
20.84,-0.0040297
20.844,-0.0036528
20.848,-0.0027669
20.852,-0.0034068
20.855,-0.0022838
20.859,-0.0030879
20.863,-0.002866
20.867,-0.0032669
20.871,-0.0033065
20.875,-0.0034751
20.879,-0.0031314
20.883,-0.0037047
20.887,-0.0034777
20.891,-0.0035575
20.895,-0.0031276
20.898,-0.0026624
20.902,-0.0024482
20.906,-0.0038441
20.91,-0.0031116
20.914,-0.0034741
20.918,-0.0036315
20.922,-0.0032171
20.926,-0.0034237
20.93,-0.0032412
20.934,-0.0029894
20.938,-0.0035927
20.941,-0.0033152
20.945,-0.0038594
20.949,-0.0033889
20.953,-0.0028978
20.957,-0.0038587
20.961,-0.0030984
20.965,-0.003711
20.969,-0.0031534
20.973,-0.0033897
20.977,-0.0033313
20.98,-0.0038059
20.984,-0.0035704
20.988,-0.0033281
20.992,-0.0032459
20.996,-0.003348
21,-0.0035132
21.004,-0.0028207
21.008,-0.0033624
21.012,-0.0035713
21.016,-0.0035684
21.02,-0.003329
21.023,-0.0029743
21.027,-0.0034518
21.031,-0.0029921
21.035,-0.0032197
21.039,-0.0035006
21.043,-0.0035937
21.047,-0.003246
21.051,-0.0033484
21.055,-0.003633
21.059,-0.0035927
21.063,-0.0031185
21.066,-0.0031212
21.07,-0.003413
21.074,-0.0030092
21.078,-0.0034247
21.082,-0.0033427
21.086,-0.0028668
21.09,-0.0034961
21.094,-0.0040296
21.098,-0.0037655
21.102,-0.00321
21.105,-0.0033927
21.109,-0.0023471
21.113,-0.0038223
21.117,-0.0034082
21.121,-0.0033047
21.125,-0.0037992
21.129,-0.0029259
21.133,-0.0030407
21.137,-0.0027595
21.141,-0.0030693
21.145,-0.0045804
21.148,-0.0036825
21.152,-0.0032446
21.156,-0.0036529
21.16,-0.0032681
21.164,-0.003389
21.168,-0.0035519
21.172,-0.0033257
21.176,-0.0031616
21.18,-0.0029359
21.184,-0.0036575
21.188,-0.0035481
21.191,-0.0036062
21.195,-0.0030561
21.199,-0.0028018
21.203,-0.002984
21.207,-0.0028808
21.211,-0.0032638
21.215,-0.0036324
21.219,-0.0031058
21.223,-0.002733
21.227,-0.003161
21.23,-0.0030067
21.234,-0.0038753
21.238,-0.0031221
21.242,-0.0033747
21.246,-0.0031244
21.25,-0.0028727
21.254,-0.0035581
21.258,-0.0028093
21.262,-0.0036846
21.266,-0.003344
21.27,-0.0032548
21.273,-0.002989
21.277,-0.0034826
21.281,-0.0037019
21.285,-0.0028746
21.289,-0.0032533
21.293,-0.0040651
21.297,-0.003282
21.301,-0.0040012
21.305,-0.0031224
21.309,-0.0029107
21.313,-0.003462
21.316,-0.0037125
21.32,-0.0029501
21.324,-0.0035564
21.328,-0.0036574
21.332,-0.0038066
21.336,-0.0038719
21.34,-0.0032475
21.344,-0.0034534
21.348,-0.0030484
21.352,-0.0033402
21.355,-0.0033913
21.359,-0.0039287
21.363,-0.0036028
21.367,-0.003304
21.371,-0.0035049
21.375,-0.0029122
21.379,-0.0040148
21.383,-0.0034303
21.387,-0.0033212
21.391,-0.0036124
21.395,-0.0033154
21.398,-0.0027698
21.402,-0.0037345
21.406,-0.0034945
21.41,-0.0038779
21.414,-0.0031213
21.418,-0.0038044
21.422,-0.0036793
21.426,-0.0028714
21.43,-0.0030842
21.434,-0.0036461
21.438,-0.0030251
21.441,-0.0036243
21.445,-0.0033613
21.449,-0.002758
21.453,-0.0026162
21.457,-0.0035781
21.461,-0.0034378
21.465,-0.0030631
21.469,-0.0032155
21.473,-0.0035084
21.477,-0.003492
21.48,-0.0036843
21.484,-0.0041983
21.488,-0.0034393
21.492,-0.0037986
21.496,-0.0034506
21.5,-0.0024959
21.504,-0.0033583
21.508,-0.0028399
21.512,-0.0037695
21.516,-0.0029277
21.52,-0.0039702
21.523,-0.0034753
21.527,-0.0032703
21.531,-0.0031507
21.535,-0.0034121
21.539,-0.0037511
21.543,-0.0038019
21.547,-0.0036321
21.551,-0.0037442
21.555,-0.0035959
21.559,-0.0037329
21.563,-0.0029603
21.566,-0.0033038
21.57,-0.0032982
21.574,-0.0036965
21.578,-0.003308
21.582,-0.0033026
21.586,-0.0037616
21.59,-0.0038651
21.594,-0.0041402
21.598,-0.0031552
21.602,-0.0038259
21.605,-0.0034536
21.609,-0.0034417
21.613,-0.0034387
21.617,-0.0036949
21.621,-0.003545
21.625,-0.0035667
21.629,-0.0029726
21.633,-0.00385
21.637,-0.0035066
21.641,-0.0030511
21.645,-0.0032752
21.648,-0.0038056
21.652,-0.0031372
21.656,-0.0043691
21.66,-0.003584
21.664,-0.002852
21.668,-0.0032281
21.672,-0.003125
21.676,-0.003441
21.68,-0.003548
21.684,-0.0031735
21.688,-0.0026047
21.691,-0.0035187
21.695,-0.0029095
21.699,-0.0035945
21.703,-0.0035333
21.707,-0.0031166
21.711,-0.0036132
21.715,-0.0028827
21.719,-0.0036983
21.723,-0.003806
21.727,-0.002813
21.73,-0.0024126
21.734,-0.0018263
21.738,-0.0019731
21.742,-0.001419
21.746,-0.0014257
21.75,-0.0010453
21.754,-0.0014271
21.758,-0.00093635
21.762,-0.00097205
21.766,-0.00072335
21.77,0.00026459
21.773,-0.00098185
21.777,-0.00044088
21.781,-0.00055925
21.785,-0.00032165
21.789,0.00016123
21.793,-0.00016397
21.797,-0.00072415
21.801,-0.0009953
21.805,-0.00018055
21.809,-0.0008247
21.813,-0.0007264
21.816,-0.00031487
21.82,-0.0010264
21.824,5.5705e-05
21.828,-0.00045811
21.832,-0.00056975
21.836,-0.00018866
21.84,-0.00017543
21.844,-0.00053775
21.848,-5.4545e-05
21.852,-0.00031458
21.855,-5.953e-05
21.859,-0.00036055
21.863,-0.00052555
21.867,0.00015791
21.871,-0.000738
21.875,-0.00023733
21.879,0.00025395
21.883,-0.0006068
21.887,-0.00023474
21.891,-0.00034302
21.895,-0.0005748
21.898,-0.00044864
21.902,-0.00022663
21.906,0.00037698
21.91,-0.00013809
21.914,-0.00054615
21.918,-0.0011669
21.922,-0.00038939
21.926,-0.0003901
21.93,-0.0007631
21.934,-0.0001237
21.938,-0.00033699
21.941,-0.00026083
21.945,-0.00063255
21.949,-0.00069415
21.953,-0.0006086
21.957,-0.00082585
21.961,-0.0006066
21.965,-0.00015196
21.969,-0.0011918
21.973,-0.0010052
21.977,-0.00035335
21.98,-0.00023225
21.984,-0.00067285
21.988,-0.0001413
21.992,0.00011583
21.996,-8.9635e-05
22,-0.0008883
22.004,-0.00059845
22.008,-0.00064595
22.012,-0.00046636
22.016,-0.0005846
22.02,-0.00064355
22.023,0.00033243
22.027,-0.00045594
22.031,-0.00038697
22.035,-0.00022761
22.039,-0.0009394
22.043,-0.00073175
22.047,-0.00016587
22.051,-0.00021259
22.055,-0.00075105
22.059,5.629e-05
22.063,-0.00036387
22.066,-0.00028783
22.07,-0.00029851
22.074,-0.00053465
22.078,-0.00099545
22.082,-0.00040612
22.086,-0.0009271
22.09,-0.00044577
22.094,-0.00032604
22.098,-0.00033844
22.102,-0.0009051
22.105,-0.0002901
22.109,-0.00085145
22.113,-0.00033786
22.117,-0.00021673
22.121,0.00013254
22.125,-0.001159
22.129,-0.00014016
22.133,-0.0004878
22.137,-0.00045215
22.141,-0.00061805
22.145,-0.00032956
22.148,-0.00049706
22.152,-0.000618
22.156,-0.0005834
22.16,-0.0001684
22.164,-0.00020527
22.168,1.714e-05
22.172,-0.00023814
22.176,-0.00041605
22.18,-0.00077015
22.184,-0.00026524
22.188,-0.00049796
22.191,-0.00032515
22.195,-0.00010497
22.199,-0.0005929
22.203,-0.0005868
22.207,-0.0005007
22.211,-0.00032551
22.215,0.0003256
22.219,-0.00070115
22.223,7.9745e-05
22.227,-0.00047286
22.23,-8.0495e-05
22.234,-0.00037473
22.238,-0.0005787
22.242,-0.00047238
22.246,-3.1153e-05
22.25,8.8025e-05
22.254,-1.1292e-05
22.258,-0.0005436
22.262,-0.0007949
22.266,-0.00019353
22.27,-0.00014531
22.273,-0.0012179
22.277,-0.00032045
22.281,0.00040944
22.285,-0.00040437
22.289,-0.00057575
22.293,-0.0007175
22.297,-0.0010163
22.301,-0.00056415
22.305,-0.00029891
22.309,-0.00076645
22.313,-0.00034052
22.316,-0.00016121
22.32,-0.0006568
22.324,-0.00027678
22.328,-0.00025013
22.332,-0.00045946
22.336,0.00025743
22.34,-0.0008716
22.344,-0.00031207
22.348,-0.0007264
22.352,-0.0006462
22.355,-0.00023033
22.359,2.2559e-06
22.363,-0.00032425
22.367,7.4735e-05
22.371,-0.00071865
22.375,-0.00027252
22.379,-0.0005788
22.383,-0.0006528
22.387,-0.0013043
22.391,-9.1085e-05
22.395,0.00031607
22.398,-0.00016198
22.402,0.00014897
22.406,-0.0003227
22.41,-0.00078875
22.414,-0.00067285
22.418,-0.0006561
22.422,1.3689e-05
22.426,-0.00054625
22.43,-0.000343
22.434,-0.00084615
22.438,-0.00044037
22.441,-0.000952
22.445,-0.00062665
22.449,-0.00010985
22.453,0.00022654
22.457,-0.00020661
22.461,-0.00034591
22.465,-4.1826e-06
22.469,-0.00012892
22.473,-0.0012514
22.477,-0.0010131
22.48,-0.00066265
22.484,-0.00066135
22.488,-0.00090175
22.492,-0.00056145
22.496,-0.00064065
22.5,8.3075e-05
22.504,-0.00051995
22.508,-0.00075605
22.512,-0.00045317
22.516,-0.0005483
22.52,-0.00021196
22.523,-0.00038362
22.527,-0.0008239
22.531,-9.1415e-05
22.535,-0.00042576
22.539,-0.0005134
22.543,-0.00061055
22.547,-3.968e-05
22.551,-0.00037053
22.555,-0.0008906
22.559,0.00042058
22.563,-0.00046804
22.566,-0.00024792
22.57,-0.00021343
22.574,-0.00079695
22.578,9.855e-05
22.582,-0.00024393
22.586,-0.00028085
22.59,0.0001496
22.594,-0.00026426
22.598,-0.00091875
22.602,-0.00030339
22.605,0.00012572
22.609,0.00014874
22.613,-0.00018514
22.617,-0.0008818
22.621,9.631e-05
22.625,-0.00032082
22.629,-0.00024001
22.633,0.00014103
22.637,-0.00017125
22.641,-0.0016313
22.645,-0.00090745
22.648,-0.00061965
22.652,-0.0007939
22.656,-0.00029347
22.66,-0.00030081
22.664,-0.00059985
22.668,6.616e-05
22.672,-0.00061125
22.676,-0.00043507
22.68,-0.00052715
22.684,-0.0005878
22.688,-0.00023546
22.691,-0.0007379
22.695,-0.00035266
22.699,4.7509e-05
22.703,3.3603e-05
22.707,-0.0009511
22.711,-0.00012525
22.715,-0.00043063
22.719,-0.0001004
22.723,-0.00017978
22.727,-0.00032314
22.73,-0.00017819
22.734,8.451e-05
22.738,0.00016988
22.742,-0.00031151
22.746,-0.00048033
22.75,-0.00012813
22.754,0.00040907
22.758,0.00019696
22.762,0.0002417
22.766,-2.8915e-05
22.77,-0.00012099
22.773,0.00090215
22.777,0.00014457
22.781,0.0001804
22.785,0.00010316
22.789,0.00023056
22.793,9.793e-05
22.797,-0.0001539
22.801,0.00039277
22.805,0.0007276
22.809,0.00027836
22.813,-6.312e-05
22.816,0.00019948
22.82,0.0005143
22.824,0.00075535
22.828,-0.00040047
22.832,0.00011068
22.836,-0.0001044
22.84,0.00022539
22.844,8.25e-05
22.848,-0.00019051
22.852,-0.00062355
22.855,-0.00041541
22.859,-0.00020326
22.863,-9.0535e-05
22.867,0.00041506
22.871,-0.00021851
22.875,0.00011622
22.879,0.00029968
22.883,5.8e-05
22.887,3.9894e-06
22.891,-0.00024392
22.895,0.00026632
22.898,0.00054025
22.902,0.00012727
22.906,6.2555e-05
22.91,3.2596e-05
22.914,0.00031105
22.918,-0.00017551
22.922,-0.00024442
22.926,0.00011887
22.93,-0.00018357
22.934,0.00023537
22.938,-0.00059945
22.941,0.00038848
22.945,-0.00033482
22.949,1.2387e-05
22.953,-0.00023441
22.957,0.00018313
22.961,-0.0005739
22.965,-0.00045611
22.969,0.0004916
22.973,-0.00043639
22.977,-0.00034319
22.98,-7.828e-05
22.984,-0.00038705
22.988,-5.811e-05
22.992,0.00029989
22.996,-9.651e-05
23,0.00048764
23.004,-0.0006323
23.008,-0.00021233
23.012,-0.000409
23.016,4.2882e-05
23.02,-0.000523
23.023,-0.0006927
23.027,-0.0002084
23.031,-0.0007145
23.035,-0.00039789
23.039,-0.00028429
23.043,-0.0006929
23.047,8.685e-05
23.051,-1.0685e-05
23.055,-0.00034055
23.059,-0.0006045
23.063,-0.00019779
23.066,-0.00014619
23.07,-0.0008436
23.074,0.00039318
23.078,8.479e-05
23.082,-0.0006943
23.086,0.00061835
23.09,-0.00013951
23.094,-0.00060475
23.098,-0.00040346
23.102,2.9224e-05
23.105,-0.00055935
23.109,-0.00020754
23.113,-7.171e-05
23.117,-0.00018803
23.121,2.8047e-05
23.125,-0.00030254
23.129,-0.00014348
23.133,1.3018e-05
23.137,-0.0008346
23.141,-0.0007213
23.145,-0.00041499
23.148,-7.6365e-06
23.152,3.3525e-05
23.156,-0.00030198
23.16,0.00041444
23.164,0.00034618
23.168,-0.00011978
23.172,0.0011171
23.176,-0.00018995
23.18,0.00028296
23.184,-9.2435e-05
23.188,-0.00068475
23.191,0.0005886
23.195,-0.00044757
23.199,-3.5954e-05
23.203,0.00062855
23.207,0.00018606
23.211,9.4275e-05
23.215,-8.929e-05
23.219,4.4876e-05
23.223,0.00062305
23.227,-0.00020828
23.23,-0.0001196
23.234,-0.00019559
23.238,-0.00017353
23.242,-8.5125e-05
23.246,0.00019363
23.25,3.5179e-07
23.254,-0.00030808
23.258,0.0005372
23.262,-0.00035826
23.266,-0.00016589
23.27,-1.3546e-05
23.273,-0.00062635
23.277,-0.0003786
23.281,-0.00047322
23.285,-0.00095735
23.289,0.0007341
23.293,-0.00028557
23.297,0.00026318
23.301,-3.0406e-05
23.305,-0.00038548
23.309,-4.1429e-05
23.313,0.00012469
23.316,-0.00041498
23.32,0.00041597
23.324,0.00041312
23.328,-5.2345e-05
23.332,0.00018795
23.336,-0.00047183
23.34,0.00015207
23.344,-0.00010019
23.348,0.00051355
23.352,-0.00039108
23.355,0.00066125
23.359,-4.1551e-05
23.363,0.00010807
23.367,0.00046103
23.371,0.00033689
23.375,-0.00036259
23.379,-0.00037426
23.383,-0.00037068
23.387,0.00033554
23.391,-9.2135e-05
23.395,-0.00020475
23.398,-2.5099e-05
23.402,0.00030351
23.406,-0.00012626
23.41,3.5515e-05
23.414,-0.00089125
23.418,-0.0003029
23.422,-0.00043549
23.426,-0.00027528
23.43,-0.00031047
23.434,-0.00018344
23.438,-0.00020213
23.441,0.00020943
23.445,0.00048988
23.449,-0.00055515
23.453,0.00061285
23.457,0.00045241
23.461,3.798e-05
23.465,0.0005705
23.469,0.0001064
23.473,-0.00033277
23.477,0.00043287
23.48,0.00082525
23.484,-0.00024187
23.488,-0.00033182
23.492,0.00041237
23.496,-9.352e-06
23.5,-0.00048835
23.504,0.00043291
23.508,-5.0665e-05
23.512,-0.00026659
23.516,-0.00018116
23.52,-0.00014475
23.523,0.00036583
23.527,-0.00037332
23.531,0.00020158
23.535,0.00039199
23.539,-0.00026488
23.543,0.00015983
23.547,-0.00054145
23.551,0.00028898
23.555,-0.00035688
23.559,0.00032094
23.563,0.00018529
23.566,-0.00011574
23.57,-0.00049364
23.574,0.0005019
23.578,8.732e-05
23.582,0.00062855
23.586,4.0665e-05
23.59,-0.00058845
23.594,0.0006416
23.598,-5.445e-05
23.602,0.00037921
23.605,-0.00020187
23.609,0.00026666
23.613,0.0003382
23.617,0.00039143
23.621,0.00020055
23.625,3.9745e-06
23.629,6.8565e-05
23.633,0.00012763
23.637,-0.0002352
23.641,0.00022462
23.645,-0.0003456
23.648,-0.0006465
23.652,7.88e-05
23.656,8.1155e-05
23.66,8.2025e-05
23.664,0.0006276
23.668,0.0004392
23.672,0.00067035
23.676,0.000101
23.68,0.00035678
23.684,-0.00016317
23.688,-2.9163e-05
23.691,-0.0005624
23.695,8.1035e-05
23.699,0.00038481
23.703,-0.00031409
23.707,-1.1682e-05
23.711,-0.00017741
23.715,-0.00019177
23.719,0.00043016
23.723,0.00015053
23.727,0.00039947
23.73,0.00028321
23.734,0.00047218
23.738,-0.0006635
23.742,-0.00023648
23.746,5.417e-05
23.75,0.0002299
23.754,0.0005083
23.758,-0.00012451
23.762,-0.00010951
23.766,7.82e-06
23.77,0.00035764
23.773,0.00014909
23.777,0.0005041
23.781,-0.00017678
23.785,0.00022909
23.789,0.00020903
23.793,-0.00051675
23.797,0.00016707
23.801,0.0006799
23.805,-0.00035405
23.809,-0.00015239
23.813,-0.00028652
23.816,0.00046904
23.82,-0.00013098
23.824,0.0003296
23.828,-0.00051445
23.832,-0.00056845
23.836,0.00044166
23.84,0.00031282
23.844,0.00021286
23.848,0.00046004
23.852,0.00013901
23.855,0.00015641
23.859,-0.00021143
23.863,9.5605e-05
23.867,-0.00029677
23.871,-0.00021794
23.875,-6.571e-05
23.879,0.00015578
23.883,0.0006728
23.887,0.00023508
23.891,0.00023895
23.895,0.00028144
23.898,0.0005098
23.902,0.00028437
23.906,9.527e-05
23.91,-8.8825e-05
23.914,0.00026544
23.918,-0.0005507
23.922,5.201e-05
23.926,0.00036764
23.93,-4.4793e-05
23.934,0.00024519
23.938,0.00010946
23.941,0.00026212
23.945,-0.00011428
23.949,0.00065415
23.953,0.00020615
23.957,0.00012012
23.961,-0.00034299
23.965,2.1145e-05
23.969,-0.00040737
23.973,1.6573e-05
23.977,-0.00030324
23.98,0.00011703
23.984,0.00019628
23.988,-3.0946e-05
23.992,0.00071265
23.996,0.00061395
24,0.0006264
24.004,0.00033443
24.008,0.00040146
24.012,-0.00010855
24.016,0.00016332
24.02,-0.00029423
24.023,0.00016714
24.027,0.00046315
24.031,-0.00035063
24.035,-4.9012e-05
24.039,-0.00049743
24.043,0.00024095
24.047,0.00047386
24.051,0.00045675
24.055,-0.00029902
24.059,-0.00018093
24.063,3.5049e-05
24.066,-6.972e-05
24.07,-0.0001177
24.074,-0.00082315
24.078,0.00029716
24.082,-7.002e-06
24.086,0.00032475
24.09,0.00017596
24.094,-0.0009688
24.098,-2.1174e-05
24.102,0.00036386
24.105,0.00045543
24.109,-2.7139e-05
24.113,0.00026716
24.117,0.00016468
24.121,0.00040372
24.125,0.0007697
24.129,-0.00024843
24.133,0.00081525
24.137,0.00014783
24.141,-0.00021143
24.145,-0.00021661
24.148,0.00011064
24.152,0.0001181
24.156,0.00021683
24.16,0.00036831
24.164,0.0002096
24.168,-0.0002743
24.172,-0.00015079
24.176,-0.0001715
24.18,-0.00011018
24.184,0.00022467
24.188,0.00021975
24.191,1.9255e-05
24.195,-0.00025284
24.199,-1.4795e-05
24.203,0.00031037
24.207,5.078e-05
24.211,0.00060205
24.215,-0.00020037
24.219,0.00019071
24.223,0.00049448
24.227,-0.00021238
24.23,7.9315e-05
24.234,-0.00032201
24.238,-0.00021541
24.242,-0.00039631
24.246,-0.00021936
24.25,0.00023223
24.254,7.3445e-06
24.258,0.0002916
24.262,0.00044828
24.266,0.00021902
24.27,0.00037431
24.273,0.00037488
24.277,0.0009433
24.281,0.00037164
24.285,-0.00043587
24.289,0.00018169
24.293,0.00030115
24.297,0.00039242
24.301,0.00034836
24.305,-0.00010987
24.309,7.952e-05
24.313,0.00019614
24.316,0.00015276
24.32,0.0007951
24.324,-0.00048801
24.328,0.00038431
24.332,0.00050455
24.336,-0.00012067
24.34,0.00026524
24.344,5.8615e-05
24.348,-0.00027714
24.352,0.00012013
24.355,0.0006689
24.359,-6.9105e-05
24.363,0.0002854
24.367,-0.00034209
24.371,-0.00028032
24.375,-0.00039968
24.379,-0.0004732
24.383,-0.00030017
24.387,-0.00028286
24.391,-0.00011676
24.395,-0.0005363
24.398,-0.00012932
24.402,-0.00021969
24.406,-0.00022268
24.41,-5.0795e-05
24.414,0.00047903
24.418,6.7655e-05
24.422,0.00022477
24.426,0.00064535
24.43,0.00033733
24.434,0.0001511
24.438,0.00049608
24.441,0.0009013
24.445,-7.6195e-05
24.449,0.00039412
24.453,-0.000209
24.457,-0.000377
24.461,-0.00018537
24.465,2.2823e-05
24.469,-0.00064645
24.473,-0.0005194
24.477,2.1914e-05
24.48,0.00024757
24.484,0.00030464
24.488,0.00017525
24.492,-4.4054e-05
24.496,0.00021227
24.5,0.00091685
24.504,0.00074735
24.508,3.9802e-05
24.512,0.00057075
24.516,-0.00014171
24.52,0.00020638
24.523,0.00013647
24.527,0.00035746
24.531,-0.0003402
24.535,0.00031149
24.539,0.00015125
24.543,0.00020748
24.547,-0.00027469
24.551,-5.457e-05
24.555,-0.00046736
24.559,-0.00018726
24.563,-0.00027569
24.566,-5.747e-05
24.57,0.00013289
24.574,0.00039423
24.578,-0.00023918
24.582,0.00031833
24.586,0.000711
24.59,0.00081515
24.594,8.9305e-05
24.598,0.001108
24.602,0.00099265
24.605,0.0017413
24.609,0.0017732
24.613,0.0015003
24.617,0.0018816
24.621,0.0021094
24.625,0.0011765
24.629,0.0019194
24.633,0.0020575
24.637,0.0018266
24.641,0.0014545
24.645,0.0025391
24.648,0.0020168
24.652,0.0026398
24.656,0.0018818
24.66,0.0025576
24.664,0.0024734
24.668,0.0024289
24.672,0.0018706
24.676,0.0021805
24.68,0.0020825
24.684,0.0019139
24.688,0.0021007
24.691,0.0016903
24.695,0.0022137
24.699,0.0022046
24.703,0.0019835
24.707,0.0025027
24.711,0.0019032
24.715,0.0021802
24.719,0.0024462
24.723,0.0023284
24.727,0.0013985
24.73,0.0019674
24.734,0.0020923
24.738,0.0020363
24.742,0.0017497
24.746,0.0022083
24.75,0.0021595
24.754,0.0026666
24.758,0.0022508
24.762,0.0024602
24.766,0.0021673
24.77,0.0015729
24.773,0.0017031
24.777,0.0019633
24.781,0.002079
24.785,0.0024374
24.789,0.001938
24.793,0.0020083
24.797,0.0023176
24.801,0.0020245
24.805,0.0017855
24.809,0.0020217
24.813,0.0019766
24.816,0.0024631
24.82,0.0023006
24.824,0.0024204
24.828,0.0020724
24.832,0.002994
24.836,0.0022989
24.84,0.0019532
24.844,0.0018299
24.848,0.0023509
24.852,0.0021862
24.855,0.0018607
24.859,0.0021771
24.863,0.0017702
24.867,0.0025909
24.871,0.0030435
24.875,0.0026274
24.879,0.0022619
24.883,0.0028661
24.887,0.0024942
24.891,0.0016091
24.895,0.002342
24.898,0.0024199
24.902,0.0025913
24.906,0.0023377
24.91,0.0028164
24.914,0.0019384
24.918,0.0032828
24.922,0.0028943
24.926,0.0023287
24.93,0.002515
24.934,0.0021005
24.938,0.0020754
24.941,0.002427
24.945,0.0027445
24.949,0.0027193
24.953,0.0031413
24.957,0.0022677
24.961,0.002299
24.965,0.0014061
24.969,0.0022595
24.973,0.0024178
24.977,0.00238
24.98,0.0021423
24.984,0.001925
24.988,0.0022484
24.992,0.0031887
24.996,0.002102
25,0.0024529
25.004,0.0020651
25.008,0.0029092
25.012,0.0027984
25.016,0.0025975
25.02,0.0025396
25.023,0.0030863
25.027,0.0027641
25.031,0.0025442
25.035,0.0025713
25.039,0.0030415
25.043,0.0026487
25.047,0.002551
25.051,0.0026457
25.055,0.0024036
25.059,0.002086
25.063,0.0025624
25.066,0.0018571
25.07,0.0021853
25.074,0.0028082
25.078,0.0021959
25.082,0.0025467
25.086,0.0023849
25.09,0.002566
25.094,0.0026198
25.098,0.0022908
25.102,0.0017127
25.105,0.0028216
25.109,0.002263
25.113,0.0025635
25.117,0.0028091
25.121,0.0020862
25.125,0.0029127
25.129,0.0027278
25.133,0.0025046
25.137,0.0023304
25.141,0.002881
25.145,0.002612
25.148,0.0026437
25.152,0.0034097
25.156,0.0026565
25.16,0.0028794
25.164,0.0024489
25.168,0.0031078
25.172,0.0024414
25.176,0.0021283
25.18,0.0024797
25.184,0.0018845
25.188,0.0029412
25.191,0.0020826
25.195,0.0026045
25.199,0.0028312
25.203,0.0026815
25.207,0.0026467
25.211,0.0022141
25.215,0.0025059
25.219,0.0028583
25.223,0.0022595
25.227,0.0020879
25.23,0.0022687
25.234,0.0028069
25.238,0.0023976
25.242,0.0025659
25.246,0.0018656
25.25,0.002207
25.254,0.0022316
25.258,0.0020307
25.262,0.0028938
25.266,0.0028488
25.27,0.0019328
25.273,0.0025847
25.277,0.0021677
25.281,0.0024644
25.285,0.0025513
25.289,0.0031468
25.293,0.0026737
25.297,0.0023046
25.301,0.0028207
25.305,0.0028262
25.309,0.0025583
25.313,0.0033
25.316,0.0024509
25.32,0.002353
25.324,0.0027137
25.328,0.0020626
25.332,0.0023765
25.336,0.0023271
25.34,0.0029966
25.344,0.0027601
25.348,0.0027236
25.352,0.0028341
25.355,0.0028272
25.359,0.002521
25.363,0.0020094
25.367,0.0019179
25.371,0.0025304
25.375,0.003112
25.379,0.0028247
25.383,0.0029066
25.387,0.0031731
25.391,0.0023675
25.395,0.0023136
25.398,0.0029249
25.402,0.0022787
25.406,0.0033055
25.41,0.0028367
25.414,0.0022902
25.418,0.0023767
25.422,0.0026895
25.426,0.0027568
25.43,0.002921
25.434,0.0026335
25.438,0.0021604
25.441,0.0025569
25.445,0.0019842
25.449,0.002733
25.453,0.002733
25.457,0.0025841
25.461,0.0022065
25.465,0.0029852
25.469,0.0028846
25.473,0.0022823
25.477,0.0020589
25.48,0.00288
25.484,0.0027318
25.488,0.0025188
25.492,0.0025844
25.496,0.0027287
25.5,0.0023207
25.504,0.0030183
25.508,0.0025935
25.512,0.002207
25.516,0.0023125
25.52,0.0030263
25.523,0.0022682
25.527,0.0021225
25.531,0.002903
25.535,0.0026056
25.539,0.0032725
25.543,0.0024022
25.547,0.0027269
25.551,0.002497
25.555,0.0026556
25.559,0.001936
25.563,0.0025798
25.566,0.0027564
25.57,0.002484
25.574,0.0023634
25.578,0.0025078
25.582,0.001768
25.586,0.0029496
25.59,0.002629
25.594,0.0026946
25.598,0.0027202
25.602,0.0025777
25.605,0.0029623
25.609,0.0020391
25.613,0.0023599
25.617,0.0026888
25.621,0.0021829
25.625,0.0022657
25.629,0.0012955
25.633,0.0018149
25.637,0.0019023
25.641,0.000563
25.645,0.0011137
25.648,0.00059855
25.652,0.0005233
25.656,0.0009481
25.66,0.00098825
25.664,0.00041625
25.668,0.00022549
25.672,0.00099925
25.676,0.00031556
25.68,0.00048694
25.684,0.00024724
25.688,0.00056915
25.691,-2.7644e-05
25.695,0.00041934
25.699,9.875e-05
25.703,0.00033928
25.707,0.0006437
25.711,0.0010862
25.715,0.00023055
25.719,0.00058015
25.723,0.00023499
25.727,0.00043488
25.73,0.0013933
25.734,0.00047827
25.738,0.00020648
25.742,0.00077485
25.746,0.0007507
25.75,-0.00011105
25.754,0.00020292
25.758,0.00027112
25.762,0.00033767
25.766,0.0004602
25.77,0.00021988
25.773,0.00056685
25.777,0.0005778
25.781,0.00011407
25.785,0.000548
25.789,2.2421e-05
25.793,0.00071315
25.797,0.00034462
25.801,0.00066925
25.805,5.51e-05
25.809,0.00067465
25.813,0.00029558
25.816,0.00036723
25.82,0.00030044
25.824,0.0006388
25.828,0.0010418
25.832,0.00071935
25.836,0.00040412
25.84,0.00011347
25.844,0.00038592
25.848,-2.0598e-05
25.852,0.00027872
25.855,0.00062575
25.859,0.00025294
25.863,0.0007052
25.867,0.00011316
25.871,0.00045243
25.875,0.00042245
25.879,-0.00018291
25.883,0.000133
25.887,0.00067895
25.891,-7.064e-05
25.895,0.00028703
25.898,6.2245e-06
25.902,1.1399e-05
25.906,3.4564e-05
25.91,0.00064885
25.914,0.00035327
25.918,0.00047402
25.922,0.00013666
25.926,0.00028278
25.93,0.00062035
25.934,-0.00013024
25.938,5.8115e-05
25.941,0.00068685
25.945,0.00092175
25.949,1.1189e-05
25.953,0.00046434
25.957,-0.0001374
25.961,0.0005346
25.965,0.00035313
25.969,-4.3477e-05
25.973,0.00050685
25.977,0.00078625
25.98,0.00029342
25.984,3.6847e-05
25.988,-4.092e-05
25.992,-9.0325e-05
25.996,0.0004802
26,0.00044852
26.004,4.1782e-05
26.008,0.00057835
26.012,-6.916e-05
26.016,0.00083105
26.02,-0.00044924
26.023,0.00020318
26.027,0.00056195
26.031,0.00029477
26.035,0.00030259
26.039,0.00010113
26.043,0.00097265
26.047,0.00011283
26.051,0.0005205
26.055,0.0007005
26.059,0.00015196
26.063,0.000787
26.066,0.0004387
26.07,-0.00023332
26.074,0.00013891
26.078,0.00026555
26.082,0.000549
26.086,0.00057545
26.09,0.00056345
26.094,-0.0002054
26.098,-0.00024522
26.102,0.00076015
26.105,0.0005705
26.109,0.00042585
26.113,0.0008326
26.117,0.0009477
26.121,3.0585e-05
26.125,0.00032523
26.129,0.00046644
26.133,0.00035768
26.137,0.00038697
26.141,0.00038476
26.145,0.00070265
26.148,-0.00064985
26.152,0.00032314
26.156,0.00023794
26.16,0.00015897
26.164,0.0003708
26.168,0.00050245
26.172,0.00020727
26.176,0.00031186
26.18,-0.00027625
26.184,-8.14e-05
