0,0.0038019
0.0039063,0.013088
0.0078125,-0.01573
0.011719,0.0064516
0.015625,0.002707
0.019531,-0.008714
0.023438,-0.0024697
0.027344,0.0030702
0.03125,0.025995
0.035156,0.020317
0.039063,-0.0087669
0.042969,0.022285
0.046875,0.0059986
0.050781,0.00045687
0.054688,0.0059706
0.058594,-0.00054054
0.0625,9.6669e-06
0.066406,0.011399
0.070313,0.010813
0.074219,0.010858
0.078125,0.0055661
0.082031,-0.0077596
0.085938,0.0057884
0.089844,0.012169
0.09375,0.0040298
0.097656,0.007847
0.10156,0.005665
0.10547,-0.0015939
0.10938,0.0026714
0.11328,-0.0049375
0.11719,0.0069244
0.12109,-0.0074862
0.125,-0.006981
0.12891,-0.0052202
0.13281,-0.020408
0.13672,0.010479
0.14063,0.0025086
0.14453,-0.0052057
0.14844,0.0097795
0.15234,-0.012021
0.15625,-0.00063576
0.16016,-0.0016252
0.16406,0.0023062
0.16797,0.0022057
0.17188,-0.0061725
0.17578,-0.00027734
0.17969,-0.0011764
0.18359,0.0045352
0.1875,0.007949
0.19141,0.0081511
0.19531,-0.0057777
0.19922,0.00082797
0.20313,-0.0083941
0.20703,-0.0077644
0.21094,3.5064e-05
0.21484,0.010976
0.21875,-0.0051785
0.22266,0.0030449
0.22656,-0.0010451
0.23047,0.0085124
0.23438,-0.0071198
0.23828,0.00069633
0.24219,0.0042059
0.24609,0.007905
0.25,0.010895
0.25391,0.00048917
0.25781,-0.010716
0.26172,-0.0054765
0.26563,-0.0079062
0.26953,0.015792
0.27344,-0.0060014
0.27734,0.0023608
0.28125,-0.0059818
0.28516,-0.0002696
0.28906,-0.013877
0.29297,-0.020018
0.29688,-0.021321
0.30078,-0.0084328
0.30469,-0.013282
0.30859,-0.013231
0.3125,-0.001481
0.31641,-0.0091356
0.32031,-0.0095829
0.32422,0.00032595
0.32813,-0.01662
0.33203,-0.0060948
0.33594,-0.0052067
0.33984,-0.012893
0.34375,-0.0096687
0.34766,-0.019455
0.35156,-0.019374
0.35547,-0.010615
0.35938,-0.006403
0.36328,0.0065897
0.36719,-0.016576
0.37109,-0.010641
0.375,-0.012561
0.37891,-0.02556
0.38281,-0.01484
0.38672,-0.024254
0.39063,-0.0054977
0.39453,-0.017697
0.39844,-0.01081
0.40234,-0.01556
0.40625,-0.0097795
0.41016,-0.016321
0.41406,-0.0086241
0.41797,-0.0067074
0.42188,0.0004622
0.42578,-0.012656
0.42969,-0.026076
0.43359,-0.01668
0.4375,-0.0011115
0.44141,-0.018359
0.44531,-0.0041407
0.44922,-0.010202
0.45313,-0.00098565
0.45703,-0.024985
0.46094,-0.012433
0.46484,-0.019485
0.46875,0.0096776
0.47266,-0.0050256
0.47656,-0.0010914
0.48047,-0.018272
0.48438,-0.013989
0.48828,-0.012434
0.49219,-0.0025598
0.49609,-0.012159
0.5,-0.0052062
0.50391,-0.024778
0.50781,-0.012977
0.51172,-0.016537
0.51563,-0.022044
0.51953,-0.0073481
0.52344,-0.008835
0.52734,-0.010352
0.53125,-0.019717
0.53516,-0.0020243
0.53906,-0.0072961
0.54297,-0.011747
0.54688,-0.0094042
0.55078,-0.011398
0.55469,-0.021917
0.55859,-0.011553
0.5625,-0.015404
0.56641,-0.01646
0.57031,-0.017761
0.57422,-0.013451
0.57813,-0.023965
0.58203,-0.003121
0.58594,-0.0063857
0.58984,-0.010317
0.59375,-0.010538
0.59766,-0.016074
0.60156,-0.0033879
0.60547,-0.011695
0.60938,-0.015929
0.61328,-0.0013675
0.61719,-0.012465
0.62109,-0.014915
0.625,-0.012667
0.62891,-0.016443
0.63281,-0.018282
0.63672,0.0075241
0.64063,0.0013536
0.64453,-0.0081908
0.64844,-0.019228
0.65234,-0.016376
0.65625,-0.011376
0.66016,-0.0043889
0.66406,-0.019282
0.66797,-0.026264
0.67188,-0.020018
0.67578,-0.0074422
0.67969,-0.0070825
0.68359,-0.0066947
0.6875,-0.010813
0.69141,-0.0085501
0.69531,-0.013134
0.69922,-0.0035722
0.70313,-0.019208
0.70703,-0.0063128
0.71094,-0.015537
0.71484,-0.011967
0.71875,-0.0058013
0.72266,-0.0024997
0.72656,-0.017886
0.73047,-0.0011787
0.73438,-0.0054928
0.73828,-0.010666
0.74219,-0.011562
0.74609,-0.011698
0.75,-0.012277
0.75391,-0.009945
0.75781,-0.0097263
0.76172,-0.0042396
0.76563,0.00071122
0.76953,-0.0068009
0.77344,-0.011605
0.77734,-0.0057179
0.78125,-0.0088587
0.78516,-0.017458
0.78906,-0.0034984
0.79297,-0.0080808
0.79688,-0.0093309
0.80078,-0.006657
0.80469,-0.0084446
0.80859,-0.016943
0.8125,-0.011457
0.81641,-0.011421
0.82031,-0.014287
0.82422,0.0012037
0.82813,-0.017035
0.83203,-0.01436
0.83594,-0.015989
0.83984,-0.019191
0.84375,-0.012124
0.84766,-0.012562
0.85156,0.00031319
0.85547,-0.012202
0.85938,-0.017955
0.86328,0.00089255
0.86719,-0.0017093
0.87109,-0.011994
0.875,-0.020869
0.87891,-0.013146
0.88281,-0.010869
0.88672,-0.0076094
0.89063,-0.011269
0.89453,-0.0062225
0.89844,-0.0065798
0.90234,-0.018217
0.90625,-0.016105
0.91016,-0.014672
0.91406,-0.013066
0.91797,-0.011815
0.92188,-0.0095667
0.92578,-0.0312
0.92969,-0.01313
0.93359,-0.0011939
0.9375,-0.017549
0.94141,-0.0033824
0.94531,-0.0074579
0.94922,-0.01009
0.95313,-0.0085615
0.95703,-0.020895
0.96094,-0.010385
0.96484,0.0016446
0.96875,-0.008849
0.97266,-0.0090552
0.97656,-0.014346
0.98047,-0.0092369
0.98438,-0.0073356
0.98828,-0.0060198
0.99219,-0.011791
0.99609,-0.010959
1,0.0049295
1.0039,-0.025371
1.0078,0.0064176
1.0117,-0.0068495
1.0156,-0.002043
1.0195,-0.020798
1.0234,-0.013192
1.0273,-0.01105
1.0313,-0.0062012
1.0352,-0.021099
1.0391,-0.0060032
1.043,-0.0179
1.0469,-0.0087978
1.0508,-0.0045913
1.0547,-0.0068647
1.0586,-0.0015482
1.0625,-0.0021611
1.0664,-0.013968
1.0703,-0.0076271
1.0742,-0.016177
1.0781,-0.018885
1.082,-0.0030488
1.0859,-0.0096743
1.0898,-0.010192
1.0938,-0.0035093
1.0977,-0.005866
1.1016,-0.0076308
1.1055,-0.0011917
1.1094,-0.0032771
1.1133,-0.0079126
1.1172,-0.014248
1.1211,-0.013798
1.125,-0.00069088
1.1289,-0.020554
1.1328,-0.009439
1.1367,-0.023176
1.1406,-0.0022849
1.1445,-0.0034686
1.1484,-0.0095732
1.1523,-0.010078
1.1563,-0.027144
1.1602,-0.0054332
1.1641,-0.02501
1.168,-0.025841
1.1719,-0.0087732
1.1758,-0.015905
1.1797,-0.0061212
1.1836,-0.0040683
1.1875,-0.0026267
1.1914,-0.013451
1.1953,-0.0053103
1.1992,-0.007768
1.2031,-0.0027018
1.207,-0.0048823
1.2109,-0.002505
1.2148,-0.0099884
1.2188,-0.010286
1.2227,-0.0022732
1.2266,-0.024543
1.2305,-0.013233
1.2344,-0.018846
1.2383,-0.01285
1.2422,-0.0059074
1.2461,-0.0050022
1.25,-0.018267
1.2539,-0.014493
1.2578,-0.010063
1.2617,-0.012806
1.2656,-0.0082502
1.2695,-0.0072372
1.2734,-0.016438
1.2773,-0.011051
1.2813,-0.024933
1.2852,-0.0018728
1.2891,-0.014537
1.293,-0.018688
1.2969,-0.012029
1.3008,-0.020388
1.3047,-0.010509
1.3086,-0.014432
1.3125,0.0048093
1.3164,-0.0026546
1.3203,-0.028451
1.3242,-0.0077414
1.3281,-0.020804
1.332,-0.012757
1.3359,-0.0097438
1.3398,-0.0053561
1.3438,-0.011926
1.3477,0.002315
1.3516,-0.01054
1.3555,-0.0027497
1.3594,0.0018135
1.3633,-0.0003238
1.3672,0.0067822
1.3711,0.0037087
1.375,-0.0038291
1.3789,-0.011184
1.3828,0.014371
1.3867,-0.0034217
1.3906,0.0013254
1.3945,0.0045069
1.3984,0.0014505
1.4023,-0.0054829
1.4063,-0.0020604
1.4102,0.00067461
1.4141,0.012236
1.418,-0.0042139
1.4219,0.0073949
1.4258,0.0039157
1.4297,-7.1609e-05
1.4336,-0.0060353
1.4375,-0.00067578
1.4414,0.0006623
1.4453,-0.0091352
1.4492,0.0026118
1.4531,-0.0045647
1.457,0.00056741
1.4609,0.003582
1.4648,-0.0052218
1.4688,-0.00086943
1.4727,0.0036881
1.4766,-0.011656
1.4805,0.0088355
1.4844,0.018899
1.4883,0.0088255
1.4922,0.00011676
1.4961,0.0056936
1.5,-0.0043634
1.5039,0.0165
1.5078,0.010064
1.5117,0.0090786
1.5156,-0.0026803
1.5195,0.0056949
1.5234,-0.00064666
1.5273,0.00095841
1.5313,-0.00097931
1.5352,-0.0042538
1.5391,-0.003417
1.543,0.0015798
1.5469,-0.0088757
1.5508,0.0074967
1.5547,0.0024018
1.5586,0.0081792
1.5625,0.005119
1.5664,0.0066823
1.5703,-0.0073028
1.5742,-0.0039924
1.5781,0.00014259
1.582,0.0041909
1.5859,0.011516
1.5898,0.0015844
1.5938,0.012617
1.5977,0.0070696
1.6016,0.011973
1.6055,0.0044932
1.6094,-0.001144
1.6133,-0.0070714
1.6172,0.0044228
1.6211,0.0090623
1.625,0.0011975
1.6289,-0.00052804
1.6328,0.0011583
1.6367,-0.0043886
1.6406,-0.00015036
1.6445,0.0019593
1.6484,0.0034104
1.6523,0.0024743
1.6563,0.0071279
1.6602,0.003533
1.6641,0.015616
1.668,0.0050638
1.6719,0.015675
1.6758,-0.0021892
1.6797,0.0065976
1.6836,0.0009408
1.6875,0.0069113
1.6914,0.00675
1.6953,-0.013026
1.6992,-0.0070818
1.7031,-0.0080339
1.707,0.004839
1.7109,0.012247
1.7148,-0.00055614
1.7188,0.0074871
1.7227,0.0056898
1.7266,-0.0054322
1.7305,0.0050192
1.7344,-0.0029352
1.7383,0.013194
1.7422,0.0022388
1.7461,0.013971
1.75,-0.00067134
1.7539,0.0064966
1.7578,0.0019779
1.7617,-0.011694
1.7656,-0.0041267
1.7695,0.0073196
1.7734,0.0026618
1.7773,-0.0049302
1.7813,-0.0016188
1.7852,0.0043714
1.7891,-0.0045779
1.793,0.0092645
1.7969,-0.0021326
1.8008,0.015291
1.8047,-0.0050011
1.8086,0.0041657
1.8125,-0.0079124
1.8164,-0.0022291
1.8203,-0.0012914
1.8242,0.0057458
1.8281,0.0095736
1.832,0.0050378
1.8359,0.00026326
1.8398,0.0086325
1.8438,0.008458
1.8477,0.0035968
1.8516,0.0067451
1.8555,0.0056271
1.8594,-0.0042199
1.8633,0.0082091
1.8672,-0.0017419
1.8711,-0.0013575
1.875,0.0040768
1.8789,0.00046019
1.8828,0.0014342
1.8867,0.0062888
1.8906,0.0092484
1.8945,0.00033147
1.8984,0.0040813
1.9023,0.00024855
1.9063,0.0038157
1.9102,0.0055849
1.9141,-0.0016496
1.918,0.0048063
1.9219,0.0071637
1.9258,0.0035388
1.9297,0.015057
1.9336,-0.0015288
1.9375,-0.002453
1.9414,-0.0095964
1.9453,0.0092469
1.9492,0.0089575
1.9531,0.0022432
1.957,0.0091001
1.9609,0.0039513
1.9648,0.0046027
1.9688,0.0032549
1.9727,0.0055143
1.9766,0.0031176
1.9805,0.02215
1.9844,-0.0057342
1.9883,-0.01051
1.9922,-0.0053897
1.9961,-0.0050123
2,-0.00034587
2.0039,0.001493
2.0078,0.0010803
2.0117,0.006392
2.0156,0.0052708
2.0195,0.0078087
2.0234,0.015069
2.0273,0.011147
2.0313,-0.0065841
2.0352,-0.014009
2.0391,0.0087858
2.043,-0.010638
2.0469,0.0027391
2.0508,0.0024397
2.0547,0.017863
2.0586,0.0015672
2.0625,-0.0015529
2.0664,0.0037337
2.0703,0.0038981
2.0742,0.0027983
2.0781,-0.0018405
2.082,-0.0060488
2.0859,0.0049062
2.0898,-0.0068265
2.0938,-0.0046777
2.0977,0.011981
2.1016,-0.00040623
2.1055,0.0016219
2.1094,0.0091038
2.1133,0.00078141
2.1172,0.010326
2.1211,0.00067886
2.125,0.010247
2.1289,0.0074002
2.1328,0.0012457
2.1367,-0.0035755
2.1406,-0.0049933
2.1445,0.00038056
2.1484,-0.00082869
2.1523,-0.00058937
2.1563,0.0093098
2.1602,0.00030278
2.1641,0.010528
2.168,-0.0013109
2.1719,0.0093058
2.1758,-0.0013015
2.1797,0.0036004
2.1836,0.0091914
2.1875,-0.0005993
2.1914,-0.00074963
2.1953,0.016542
2.1992,0.0091127
2.2031,-0.00067465
2.207,0.0069468
2.2109,-0.00020726
2.2148,0.0073315
2.2188,0.012383
2.2227,-0.0089172
2.2266,0.0097717
2.2305,0.012868
2.2344,0.0029435
2.2383,0.014993
2.2422,0.003774
2.2461,-0.0060487
2.25,-0.012805
2.2539,0.00032009
2.2578,0.0076544
2.2617,0.0047541
2.2656,0.0053354
2.2695,-0.0017271
2.2734,0.0033898
2.2773,-0.009114
2.2813,-0.0027432
2.2852,-0.0029949
2.2891,0.0065865
2.293,0.0028547
2.2969,-0.0052391
2.3008,0.0028031
2.3047,-0.0020785
2.3086,-0.0019854
2.3125,0.0087599
2.3164,0.0033456
2.3203,0.005226
2.3242,0.0085305
2.3281,0.003505
2.332,0.0062485
2.3359,0.0075454
2.3398,0.011599
2.3438,0.0074602
2.3477,0.014902
2.3516,0.0058175
2.3555,0.0058967
2.3594,0.018657
2.3633,0.0032649
2.3672,0.0070205
2.3711,0.013725
2.375,0.0085149
2.3789,0.017681
2.3828,0.015367
2.3867,0.010394
2.3906,0.0030458
2.3945,0.012699
2.3984,-0.00097602
2.4023,0.010637
2.4063,0.014748
2.4102,0.010649
2.4141,0.015397
2.418,0.023481
2.4219,0.015295
2.4258,0.010165
2.4297,0.012209
2.4336,0.010052
2.4375,-0.0027936
2.4414,0.003192
2.4453,0.014629
2.4492,0.0056505
2.4531,0.010134
2.457,-0.0010698
2.4609,0.0064543
2.4648,0.010114
2.4688,-0.0039216
2.4727,0.0080215
2.4766,0.0042004
2.4805,-0.0011576
2.4844,0.0052767
2.4883,-0.0077969
2.4922,-0.0094022
2.4961,-0.0027178
2.5,-0.0015209
2.5039,-0.0029885
2.5078,-0.0070837
2.5117,0.0069984
2.5156,-0.0064059
2.5195,0.0056209
2.5234,0.010434
2.5273,0.0049007
2.5313,0.0056076
2.5352,0.0022678
2.5391,-0.005595
2.543,0.0044976
2.5469,0.011518
2.5508,0.016952
2.5547,0.0015795
2.5586,-0.0069135
2.5625,0.0057325
2.5664,0.0071592
2.5703,0.0028229
2.5742,-0.0037627
2.5781,0.018627
2.582,-0.012406
2.5859,0.00063106
2.5898,-0.0051793
2.5938,-0.0004399
2.5977,0.0061787
2.6016,0.0047984
2.6055,-0.0012549
2.6094,0.0092906
2.6133,0.0082844
2.6172,0.008563
2.6211,0.0010351
2.625,0.011434
2.6289,0.0085709
2.6328,0.021444
2.6367,0.010994
2.6406,0.011431
2.6445,0.0034381
2.6484,-0.0061734
2.6523,0.00025466
2.6563,-0.0024705
2.6602,-0.0010485
2.6641,0.0069209
2.668,-0.000925
2.6719,-0.0033715
2.6758,-6.1865e-05
2.6797,0.0015358
2.6836,0.0054378
2.6875,-0.0042305
2.6914,0.0048354
2.6953,0.0033306
2.6992,0.012361
2.7031,0.0016452
2.707,0.0022305
2.7109,-0.0052082
2.7148,-0.0069087
2.7188,0.0049051
2.7227,0.00086348
2.7266,0.0062403
2.7305,-0.0034765
2.7344,0.016518
2.7383,0.004014
2.7422,0.010557
2.7461,0.001421
2.75,0.0016621
2.7539,0.0074666
2.7578,0.0063566
2.7617,-0.0055561
2.7656,-0.0084469
2.7695,-0.0053091
2.7734,-0.007514
2.7773,0.0029051
2.7813,-0.00049373
2.7852,-0.00028416
2.7891,-0.00739
2.793,0.0076979
2.7969,0.0052812
2.8008,0.0015448
2.8047,0.0093947
2.8086,-0.0040329
2.8125,0.0050375
2.8164,0.0045319
2.8203,0.0045254
2.8242,-0.003082
2.8281,0.0044282
2.832,-0.0014698
2.8359,-0.0041101
2.8398,-0.0062162
2.8438,0.0097081
2.8477,-0.0035142
2.8516,0.0013615
2.8555,-0.0058414
2.8594,0.00070603
2.8633,-0.019989
2.8672,-0.0048252
2.8711,-0.0072957
2.875,-0.0045055
2.8789,0.0010094
2.8828,6.7022e-05
2.8867,0.01599
2.8906,-0.0018912
2.8945,0.00033806
2.8984,-0.0089976
2.9023,-0.0012613
2.9063,-0.0073365
2.9102,0.0023156
2.9141,0.0080639
2.918,0.0047902
2.9219,-0.0031048
2.9258,-0.0096817
2.9297,0.0123
2.9336,0.01674
2.9375,0.0034582
2.9414,-0.0040225
2.9453,0.011729
2.9492,-0.00081444
2.9531,-2.596e-05
2.957,0.009307
2.9609,-0.0071273
2.9648,-0.011573
2.9688,0.0048817
2.9727,0.0044906
2.9766,0.0022169
2.9805,0.005082
2.9844,0.0093633
2.9883,0.0087845
2.9922,-0.0018725
2.9961,0.008058
3,0.0036606
3.0039,-0.0011088
3.0078,-0.0059717
3.0117,0.0070762
3.0156,0.00012432
3.0195,0.0031765
3.0234,-0.0024721
3.0273,-0.0075499
3.0313,0.0048266
3.0352,0.0032492
3.0391,0.012121
3.043,0.0091909
3.0469,0.010847
3.0508,-0.001959
3.0547,-0.0032608
3.0586,-0.0055303
3.0625,0.0070395
3.0664,0.02323
3.0703,0.0085144
3.0742,-0.0023478
3.0781,0.0087427
3.082,-0.0053889
3.0859,-0.0075936
3.0898,0.007584
3.0938,-0.0028631
3.0977,0.0050067
3.1016,0.012779
3.1055,0.0056222
3.1094,0.0092306
3.1133,-0.008832
3.1172,0.0071424
3.1211,0.017644
3.125,0.0064949
3.1289,-0.008083
3.1328,0.0014158
3.1367,-0.00080882
3.1406,0.0051652
3.1445,0.0050574
3.1484,0.0047877
3.1523,-0.00068706
3.1563,-0.0021839
3.1602,-0.0018179
3.1641,0.0086882
3.168,-0.010259
3.1719,0.001408
3.1758,0.0046763
3.1797,-0.0020252
3.1836,0.0058101
3.1875,0.0018497
3.1914,-0.0042785
3.1953,0.0035613
3.1992,0.00061743
3.2031,-0.0002831
3.207,-0.0023103
3.2109,0.0032649
3.2148,-0.010108
3.2188,0.00023131
3.2227,-0.00074093
3.2266,-0.0033792
3.2305,0.0075353
3.2344,-0.0025304
3.2383,0.0061606
3.2422,0.0089169
3.2461,0.00065004
3.25,0.0035553
3.2539,0.0060146
3.2578,0.00084761
3.2617,0.0051612
3.2656,-0.0076883
3.2695,0.0090158
3.2734,-0.0058313
3.2773,-0.011644
3.2813,0.011323
3.2852,0.0014141
3.2891,0.0053579
3.293,-0.00013152
3.2969,-0.0046394
3.3008,-0.019117
3.3047,0.0070213
3.3086,0.00055242
3.3125,0.0012197
3.3164,0.005571
3.3203,-0.007224
3.3242,-0.002256
3.3281,0.011061
3.332,0.0071855
3.3359,-0.006099
3.3398,-0.012591
3.3438,-0.00098639
3.3477,0.004657
3.3516,0.0099001
3.3555,0.0039682
3.3594,-0.0046018
3.3633,0.0054818
3.3672,-0.0050328
3.3711,-0.003633
3.375,-0.0015799
3.3789,-0.0057829
3.3828,0.00085869
3.3867,-0.0037204
3.3906,0.00049874
3.3945,-0.00086483
3.3984,-0.00058815
3.4023,-0.0013137
3.4063,0.010955
3.4102,0.0066001
3.4141,0.0028161
3.418,-0.0078132
3.4219,-0.0087607
3.4258,-0.011009
3.4297,0.021392
3.4336,0.0098545
3.4375,0.0047352
3.4414,-0.0040679
3.4453,-0.0053776
3.4492,0.006546
3.4531,0.013736
3.457,-0.0092704
3.4609,-0.00042538
3.4648,0.0021937
3.4688,-0.011289
3.4727,0.0087131
3.4766,-0.00023911
3.4805,0.016109
3.4844,-0.00030694
3.4883,0.0052013
3.4922,-0.0059283
3.4961,-0.0024181
3.5,-0.0063767
3.5039,0.0046169
3.5078,0.011086
3.5117,-0.0021942
3.5156,0.0052709
3.5195,-0.0011774
3.5234,0.0033009
3.5273,0.011189
3.5313,0.0036797
3.5352,-0.0044621
3.5391,-0.0032152
3.543,0.0015541
3.5469,0.0012564
3.5508,-0.0036715
3.5547,0.0036006
3.5586,0.011227
3.5625,0.00052426
3.5664,0.00092662
3.5703,-0.013138
3.5742,-0.0030577
3.5781,-0.0075184
3.582,-0.00052416
3.5859,0.0058141
3.5898,0.012826
3.5938,0.014805
3.5977,0.0013334
3.6016,-5.9539e-05
3.6055,0.0079456
3.6094,0.0054917
3.6133,0.0072368
3.6172,0.0071422
3.6211,-0.0089263
3.625,0.0053972
3.6289,0.0010925
3.6328,-0.0033944
3.6367,-0.0026742
3.6406,0.011487
3.6445,-0.0031871
3.6484,-0.0061654
3.6523,0.0041027
3.6563,0.016804
3.6602,0.0027808
3.6641,0.0048002
3.668,-0.0040084
3.6719,0.014438
3.6758,0.0034232
3.6797,0.0062091
3.6836,-0.0043388
3.6875,0.0084033
3.6914,0.0051365
3.6953,-0.0057295
3.6992,0.0028006
3.7031,-0.00059959
3.707,0.0034061
3.7109,0.00088682
3.7148,0.0013213
3.7188,-0.0046517
3.7227,0.00033879
3.7266,0.0080093
3.7305,0.014895
3.7344,-0.0056552
3.7383,0.019395
3.7422,0.013455
3.7461,0.0039692
3.75,0.00076409
3.7539,-0.0019669
3.7578,0.00887
3.7617,-0.0020102
3.7656,-0.0005288
3.7695,0.0087577
3.7734,0.0053337
3.7773,0.0083452
3.7813,0.0053879
3.7852,-0.0010888
3.7891,-0.0018125
3.793,0.00768
3.7969,-0.0023499
3.8008,0.011188
3.8047,0.0087602
3.8086,0.0054757
3.8125,0.003592
3.8164,0.006135
3.8203,0.028352
3.8242,0.0024255
3.8281,-0.0079829
3.832,0.016406
3.8359,0.0070612
3.8398,-0.0019251
3.8438,0.021055
3.8477,0.0062853
3.8516,0.004255
3.8555,-0.0035728
3.8594,-0.0058377
3.8633,-0.010987
3.8672,-0.0015514
3.8711,-0.0059722
3.875,0.0062042
3.8789,-0.00037429
3.8828,0.014693
3.8867,0.013198
3.8906,0.0039736
3.8945,0.0010336
3.8984,0.011295
3.9023,-0.0049502
3.9063,0.0078439
3.9102,-0.0017774
3.9141,-8.248e-06
3.918,-0.0020226
3.9219,0.006766
3.9258,-0.0027792
3.9297,-0.004754
3.9336,0.0066647
3.9375,-0.00038218
3.9414,0.004856
3.9453,-0.00064419
3.9492,0.0032476
3.9531,-0.01721
3.957,0.0039935
3.9609,0.013813
3.9648,0.0082428
3.9688,0.0075918
3.9727,-0.00032992
3.9766,0.0027599
3.9805,0.0032465
3.9844,0.0022497
3.9883,-0.0041544
3.9922,-0.00048015
3.9961,0.0011738
4,-0.00058145
4.0039,0.0090433
4.0078,0.02122
4.0117,-0.0060982
4.0156,0.0040627
4.0195,-0.0071523
4.0234,0.012211
4.0273,0.013009
4.0313,-0.00862
4.0352,0.01698
4.0391,-0.0043808
4.043,0.0048727
4.0469,0.010954
4.0508,0.0041052
4.0547,0.019181
4.0586,0.022314
4.0625,0.003741
4.0664,-0.010828
4.0703,-6.5851e-05
4.0742,-0.0036478
4.0781,-0.0032007
4.082,-0.005827
4.0859,0.0027626
4.0898,0.017289
4.0938,-0.0024129
4.0977,0.0009186
4.1016,0.011326
4.1055,0.011705
4.1094,0.0064842
4.1133,0.010133
4.1172,0.0088261
4.1211,-0.00021633
4.125,0.0053902
4.1289,0.00018073
4.1328,-0.0040913
4.1367,0.006731
4.1406,0.0026502
4.1445,0.00072832
4.1484,0.0039584
4.1523,0.0087314
4.1563,0.0044325
4.1602,0.0030229
4.1641,0.0037057
4.168,0.0022263
4.1719,-0.0034667
4.1758,0.0076826
4.1797,0.012131
4.1836,-0.0016166
4.1875,0.015749
4.1914,0.00082952
4.1953,0.0003356
4.1992,-0.0042707
4.2031,-0.0034885
4.207,-0.0045932
4.2109,0.004644
4.2148,0.01338
4.2188,0.0057174
4.2227,0.0079011
4.2266,0.01122
4.2305,-0.016053
4.2344,0.00035932
4.2383,0.0040106
4.2422,0.0066127
4.2461,-0.0076024
4.25,-0.0053617
4.2539,0.007487
4.2578,0.001214
4.2617,0.0060955
4.2656,-0.0044006
4.2695,-0.0087786
4.2734,0.0088562
4.2773,0.013059
4.2813,0.017827
4.2852,-0.0023657
4.2891,0.0016383
4.293,0.0036216
4.2969,0.016918
4.3008,0.016161
4.3047,0.033184
4.3086,0.017012
4.3125,0.018371
4.3164,0.035447
4.3203,0.045571
4.3242,0.034364
4.3281,0.033701
4.332,0.043869
4.3359,0.035265
4.3398,0.04849
4.3438,0.055363
4.3477,0.051802
4.3516,0.037171
4.3555,0.047006
4.3594,0.04861
4.3633,0.063427
4.3672,0.056933
4.3711,0.04998
4.375,0.059628
4.3789,0.043009
4.3828,0.04796
4.3867,0.060414
4.3906,0.061034
4.3945,0.055575
4.3984,0.053931
4.4023,0.046427
4.4063,0.055987
4.4102,0.045001
4.4141,0.054997
4.418,0.052919
4.4219,0.0589
4.4258,0.047723
4.4297,0.055148
4.4336,0.05624
4.4375,0.044337
4.4414,0.051912
4.4453,0.062242
4.4492,0.051869
4.4531,0.048974
4.457,0.054407
4.4609,0.049191
4.4648,0.054173
4.4688,0.04995
4.4727,0.050616
4.4766,0.053852
4.4805,0.06011
4.4844,0.053612
4.4883,0.062074
4.4922,0.036116
4.4961,0.047319
4.5,0.052149
4.5039,0.044481
4.5078,0.041199
4.5117,0.05439
4.5156,0.054198
4.5195,0.051842
4.5234,0.052644
4.5273,0.04386
4.5313,0.046737
4.5352,0.049766
4.5391,0.045912
4.543,0.053363
4.5469,0.067971
4.5508,0.048046
4.5547,0.056189
4.5586,0.04435
4.5625,0.061055
4.5664,0.044526
4.5703,0.052596
4.5742,0.046534
4.5781,0.054449
4.582,0.051
4.5859,0.050844
4.5898,0.072314
4.5938,0.0473
4.5977,0.051651
4.6016,0.071099
4.6055,0.044098
4.6094,0.056165
4.6133,0.044689
4.6172,0.059647
4.6211,0.054738
4.625,0.057085
4.6289,0.050531
4.6328,0.054239
4.6367,0.062893
4.6406,0.03634
4.6445,0.040785
4.6484,0.055134
4.6523,0.047391
4.6563,0.049739
4.6602,0.041086
4.6641,0.045162
4.668,0.048659
4.6719,0.046398
4.6758,0.045449
4.6797,0.048643
4.6836,0.045005
4.6875,0.061205
4.6914,0.04479
4.6953,0.064726
4.6992,0.049341
4.7031,0.041851
4.707,0.047856
4.7109,0.058919
4.7148,0.059813
4.7188,0.053462
4.7227,0.054288
4.7266,0.056601
4.7305,0.041629
4.7344,0.047616
4.7383,0.038553
4.7422,0.04808
4.7461,0.057738
4.75,0.055885
4.7539,0.066806
4.7578,0.051678
4.7617,0.035204
4.7656,0.062449
4.7695,0.059707
4.7734,0.046706
4.7773,0.052587
4.7813,0.056675
4.7852,0.053984
4.7891,0.056255
4.793,0.050602
4.7969,0.051222
4.8008,0.052253
4.8047,0.046193
4.8086,0.061953
4.8125,0.051975
4.8164,0.056728
4.8203,0.045691
4.8242,0.043959
4.8281,0.050768
4.832,0.04954
4.8359,0.059773
4.8398,0.055664
4.8438,0.055263
4.8477,0.041245
4.8516,0.044572
4.8555,0.052728
4.8594,0.048687
4.8633,0.060126
4.8672,0.060396
4.8711,0.046796
4.875,0.057169
4.8789,0.060999
4.8828,0.053598
4.8867,0.063005
4.8906,0.059186
4.8945,0.053244
4.8984,0.057872
4.9023,0.052882
4.9063,0.048344
4.9102,0.053576
4.9141,0.051112
4.918,0.048178
4.9219,0.063269
4.9258,0.05236
4.9297,0.070166
4.9336,0.048803
4.9375,0.05488
4.9414,0.062042
4.9453,0.070121
4.9492,0.052998
4.9531,0.045382
4.957,0.056851
4.9609,0.042071
4.9648,0.049668
4.9688,0.053632
4.9727,0.062225
4.9766,0.061735
4.9805,0.051206
4.9844,0.057767
4.9883,0.048842
4.9922,0.055724
4.9961,0.064562
5,0.052101
5.0039,0.048821
5.0078,0.047344
5.0117,0.055885
5.0156,0.060259
5.0195,0.065894
5.0234,0.05138
5.0273,0.052322
5.0313,0.046841
5.0352,0.062773
5.0391,0.050793
5.043,0.047851
5.0469,0.066492
5.0508,0.056665
5.0547,0.055958
5.0586,0.043779
5.0625,0.053947
5.0664,0.054499
5.0703,0.042993
5.0742,0.049006
5.0781,0.04767
5.082,0.054273
5.0859,0.043491
5.0898,0.058399
5.0938,0.063366
5.0977,0.048579
5.1016,0.050594
5.1055,0.05416
5.1094,0.059052
5.1133,0.05428
5.1172,0.053526
5.1211,0.047503
5.125,0.049515
5.1289,0.055729
5.1328,0.063499
5.1367,0.055759
5.1406,0.04326
5.1445,0.054808
5.1484,0.05099
5.1523,0.049797
5.1563,0.04989
5.1602,0.045195
5.1641,0.049175
5.168,0.045948
5.1719,0.048957
5.1758,0.052383
5.1797,0.052779
5.1836,0.050006
5.1875,0.050457
5.1914,0.051824
5.1953,0.054934
5.1992,0.060917
5.2031,0.056436
5.207,0.050228
5.2109,0.056668
5.2148,0.050855
5.2188,0.040116
5.2227,0.036192
5.2266,0.040713
5.2305,0.051139
5.2344,0.048343
5.2383,0.047449
5.2422,0.052555
5.2461,0.047272
5.25,0.047121
5.2539,0.055582
5.2578,0.056582
5.2617,0.068162
5.2656,0.05304
5.2695,0.051324
5.2734,0.046864
5.2773,0.049537
5.2813,0.050551
5.2852,0.038509
5.2891,0.049166
5.293,0.056381
5.2969,0.047132
5.3008,0.05469
5.3047,0.058145
5.3086,0.058611
5.3125,0.056316
5.3164,0.034706
5.3203,0.046654
5.3242,0.057112
5.3281,0.053733
5.332,0.051204
5.3359,0.054356
5.3398,0.059047
5.3438,0.051482
5.3477,0.043844
5.3516,0.046229
5.3555,0.043874
5.3594,0.049146
5.3633,0.042853
5.3672,0.040629
5.3711,0.034312
5.375,0.026929
5.3789,0.025943
5.3828,0.022994
5.3867,0.0076351
5.3906,0.015147
5.3945,0.017278
5.3984,0.0073839
5.4023,0.017394
5.4063,0.0090002
5.4102,0.0013836
5.4141,0.0030005
5.418,0.0021226
5.4219,0.0058373
5.4258,0.0094883
5.4297,0.0019935
5.4336,0.0070875
5.4375,0.015977
5.4414,0.0098702
5.4453,0.0088877
5.4492,-0.0028747
5.4531,-0.001003
5.457,0.0044126
5.4609,0.0019463
5.4648,-0.0088077
5.4688,-0.0079027
5.4727,0.010293
5.4766,-0.0020161
5.4805,0.018352
5.4844,-0.011828
5.4883,0.007129
5.4922,0.0038542
5.4961,-0.0017512
5.5,0.0061293
5.5039,-0.0026525
5.5078,0.0088162
5.5117,0.0030952
5.5156,-0.0089982
5.5195,-0.01455
5.5234,0.0005605
5.5273,0.010572
5.5313,0.0035831
5.5352,0.0024774
5.5391,0.0067555
5.543,-0.0081143
5.5469,0.011731
5.5508,-0.0046917
5.5547,0.0019174
5.5586,-0.00087112
5.5625,0.0028292
5.5664,-0.011874
5.5703,0.012806
5.5742,0.006111
5.5781,0.01675
5.582,0.012882
5.5859,0.0032693
5.5898,-0.0031831
5.5938,-0.0086747
5.5977,0.0037647
5.6016,0.0050579
5.6055,0.01061
5.6094,-0.0039327
5.6133,0.007905
5.6172,0.0022601
5.6211,-0.004209
5.625,0.0063242
5.6289,0.0024184
5.6328,-0.0013336
5.6367,0.013477
5.6406,0.0044565
5.6445,-0.00061393
5.6484,0.0022186
5.6523,0.0010303
5.6563,0.0018408
5.6602,0.0040157
5.6641,-0.0033154
5.668,-0.0046229
5.6719,0.0035356
5.6758,0.014221
5.6797,-0.0014022
5.6836,-0.0065131
5.6875,-0.0011358
5.6914,-0.0029498
5.6953,-0.0019228
5.6992,0.0036506
5.7031,-0.00076107
5.707,-0.0041783
5.7109,-0.0032107
5.7148,-0.0094482
5.7188,-0.0061178
5.7227,-0.009928
5.7266,-0.0034972
5.7305,-0.0075091
5.7344,-0.0049263
5.7383,-0.0022271
5.7422,-0.008765
5.7461,-0.00053408
5.75,0.0020037
5.7539,-0.0071009
5.7578,0.0077709
5.7617,-0.011144
5.7656,-0.0026006
5.7695,-0.010339
5.7734,-0.0023768
5.7773,-0.0094332
5.7813,-0.0042415
5.7852,-0.0054614
5.7891,-0.0086025
5.793,-0.014816
5.7969,0.0037504
5.8008,0.01381
5.8047,0.015253
5.8086,-0.0041019
5.8125,-0.0010853
5.8164,-0.0041573
5.8203,-0.00039188
5.8242,-0.0074561
5.8281,-0.014536
5.832,-0.0012045
5.8359,-0.0095791
5.8398,-0.014326
5.8438,0.015966
5.8477,-0.0024114
5.8516,0.0021625
5.8555,0.0078048
5.8594,-0.012491
5.8633,0.0023582
5.8672,0.0029521
5.8711,-8.96e-05
5.875,0.00032215
5.8789,-0.0046534
5.8828,0.0040862
5.8867,-0.0070974
5.8906,-0.006726
5.8945,0.0040673
5.8984,0.01091
5.9023,-0.0037166
5.9063,-0.0045486
5.9102,0.0019041
5.9141,0.0066122
5.918,0.005925
5.9219,0.0010899
5.9258,-0.0051713
5.9297,0.0039133
5.9336,-0.00096925
5.9375,0.0094284
5.9414,-0.010196
5.9453,0.00080686
5.9492,0.0089647
5.9531,-0.0036148
5.957,-0.0044838
5.9609,-0.0066139
5.9648,-0.0019438
5.9688,-0.0013882
5.9727,0.00095021
5.9766,-0.0063518
5.9805,0.00036889
5.9844,-0.0045867
5.9883,-0.0029986
5.9922,-0.0063602
5.9961,-0.0024474
6,0.02479
6.0039,0.023644
6.0078,0.0076608
6.0117,0.0051188
6.0156,-0.0094839
6.0195,-0.0045737
6.0234,-0.0048032
6.0273,0.0033958
6.0313,0.0030825
6.0352,0.00051147
6.0391,-0.0025755
6.043,-0.0066444
6.0469,-3.6003e-05
6.0508,0.0079235
6.0547,0.0027318
6.0586,0.00074493
6.0625,0.0038336
6.0664,0.0030732
6.0703,-0.012627
6.0742,-0.0010713
6.0781,-0.0041047
6.082,-0.015292
6.0859,-0.010102
6.0898,-0.0027904
6.0938,0.0054477
6.0977,-0.0019116
6.1016,0.0016284
6.1055,-0.0065383
6.1094,-0.015425
6.1133,0.00050218
6.1172,-0.0068816
6.1211,0.0081447
6.125,0.012133
6.1289,-0.002757
6.1328,0.0083064
6.1367,0.0066063
6.1406,-0.010162
6.1445,-0.00042288
6.1484,0.0016165
6.1523,0.0034237
6.1563,0.004485
6.1602,0.004482
6.1641,0.0045705
6.168,-0.0023481
6.1719,0.0026201
6.1758,-0.015976
6.1797,-0.0083818
6.1836,0.0082165
6.1875,-0.0051651
6.1914,0.0016255
6.1953,0.0098442
6.1992,-0.0071335
6.2031,-0.0075589
6.207,-0.0041162
6.2109,0.0026558
6.2148,-0.0017623
6.2188,-0.007135
6.2227,-0.011324
6.2266,-0.0028748
6.2305,-0.0019315
6.2344,-0.0042849
6.2383,-0.002465
6.2422,-0.0084124
6.2461,0.0032442
6.25,-0.015907
6.2539,0.00066457
6.2578,0.0045682
6.2617,-0.0059927
6.2656,-0.00028767
6.2695,0.0021972
6.2734,-0.0042784
6.2773,-0.00014823
6.2813,0.0027366
6.2852,-0.006892
6.2891,0.0056159
6.293,0.007491
6.2969,0.0021087
6.3008,4.6122e-05
6.3047,-0.0082074
6.3086,0.0035799
6.3125,-0.0085023
6.3164,0.011324
6.3203,0.0037592
6.3242,0.0018639
6.3281,-0.0028344
6.332,-0.01548
6.3359,-0.0085871
6.3398,0.0024065
6.3438,0.016842
6.3477,0.004996
6.3516,0.0019671
6.3555,-0.0039855
6.3594,0.00085549
6.3633,0.0070375
6.3672,-0.0011887
6.3711,0.014523
6.375,-0.0067629
6.3789,7.759e-05
6.3828,0.0040508
6.3867,-0.0092509
6.3906,0.0092581
6.3945,0.0062183
6.3984,0.0063432
6.4023,0.011271
6.4063,0.012836
6.4102,0.011026
6.4141,0.0021413
6.418,0.0054341
6.4219,0.0086666
6.4258,-0.0023775
6.4297,-0.00065915
6.4336,0.0035936
6.4375,0.0069711
6.4414,0.01888
6.4453,0.011729
6.4492,0.0029294
6.4531,0.0016012
6.457,0.016808
6.4609,0.025052
6.4648,0.0065084
6.4688,0.0014388
6.4727,-0.0056705
6.4766,0.010783
6.4805,0.0056266
6.4844,0.011613
6.4883,-0.0032069
6.4922,0.004764
6.4961,-0.0017447
6.5,0.011708
6.5039,-0.0013427
6.5078,0.0018898
6.5117,9.1027e-05
6.5156,0.0096586
6.5195,0.005707
6.5234,-0.0044492
6.5273,-0.0019065
6.5313,-0.0049135
6.5352,0.0060207
6.5391,0.0048182
6.543,-0.0090462
6.5469,-0.010966
6.5508,0.0021302
6.5547,0.0071356
6.5586,0.0031272
6.5625,-0.0092419
6.5664,-0.0094774
6.5703,0.0075569
6.5742,0.00042284
6.5781,-0.0012078
6.582,0.010894
6.5859,-0.0040347
6.5898,0.0024884
6.5938,0.0043474
6.5977,0.0070113
6.6016,-0.0050052
6.6055,0.0034276
6.6094,0.020269
6.6133,-0.009861
6.6172,0.0039607
6.6211,-0.00065566
6.625,-0.0048084
6.6289,-0.0047989
6.6328,0.0046114
6.6367,0.01743
6.6406,-0.0046276
6.6445,0.0047167
6.6484,-0.0031573
6.6523,0.014698
6.6563,0.0045344
6.6602,-0.00030014
6.6641,0.0050585
6.668,0.00061492
6.6719,0.0084212
6.6758,-0.0008214
6.6797,-0.0075497
6.6836,0.0020462
6.6875,0.011341
6.6914,-0.0080686
6.6953,-0.001162
6.6992,0.0078242
6.7031,-0.012761
6.707,0.0052078
6.7109,0.0059385
6.7148,0.0018644
6.7188,-0.0053463
6.7227,-0.00010836
6.7266,0.00059086
6.7305,0.0066739
6.7344,0.0049646
6.7383,-0.0019791
6.7422,0.012134
6.7461,0.00043714
6.75,-0.0048887
6.7539,-0.0022125
6.7578,0.0069779
6.7617,0.0023059
6.7656,0.0072342
6.7695,0.0014749
6.7734,0.018634
6.7773,-0.010623
6.7813,-0.0016453
6.7852,0.000848
6.7891,0.0021762
6.793,0.011843
6.7969,0.0029752
6.8008,0.00038604
6.8047,0.0014243
6.8086,0.0060419
6.8125,-0.0042555
6.8164,0.003802
6.8203,-0.010407
6.8242,0.000123
6.8281,-0.0060339
6.832,-0.0041223
6.8359,0.0023288
6.8398,-0.0077597
6.8438,-0.0068671
6.8477,-0.010599
6.8516,-0.01561
6.8555,-0.00089681
6.8594,0.0084051
6.8633,-0.0011018
6.8672,-0.0014477
6.8711,-0.0071271
6.875,0.011587
6.8789,-0.0012341
6.8828,0.0097876
6.8867,0.0032166
6.8906,-0.0013099
6.8945,0.0079719
6.8984,0.0069674
6.9023,-0.0010474
6.9063,0.0087396
6.9102,0.012189
6.9141,-0.00065889
6.918,-0.0016461
6.9219,0.0034303
6.9258,0.0034074
6.9297,0.0068431
6.9336,-0.00062917
6.9375,0.0061407
6.9414,0.0083392
6.9453,0.0020431
6.9492,0.0018272
6.9531,-0.0080487
6.957,-0.007289
6.9609,-0.0090883
6.9648,-0.0073091
6.9688,0.00059049
6.9727,-0.0096094
6.9766,0.017729
6.9805,0.0070317
6.9844,-0.012924
6.9883,-0.0066204
6.9922,0.00060903
6.9961,-0.010928
7,-0.0022458
7.0039,0.0085595
7.0078,-0.0004507
7.0117,0.00012727
7.0156,-0.0065491
7.0195,-0.0034287
7.0234,-0.0090564
7.0273,0.0031002
7.0313,-0.0026356
7.0352,0.0061461
7.0391,0.0094145
7.043,0.0083747
7.0469,0.00065393
7.0508,-0.00247
7.0547,-0.0073487
7.0586,0.0023179
7.0625,0.0083366
7.0664,-0.00092012
7.0703,9.0275e-05
7.0742,0.0054593
7.0781,0.007055
7.082,-0.0090862
7.0859,0.0025042
7.0898,0.0027625
7.0938,0.00063338
7.0977,0.0082708
7.1016,-0.00050422
7.1055,-0.0038213
7.1094,0.0037868
7.1133,0.0048193
7.1172,-0.00025959
7.1211,0.0066463
7.125,-0.0099114
7.1289,-0.0068803
7.1328,-0.021011
7.1367,0.0044585
7.1406,-0.006157
7.1445,-0.00089163
7.1484,0.0080209
7.1523,0.0011728
7.1563,-0.0024031
7.1602,-0.0053833
7.1641,-0.0011527
7.168,0.0047673
7.1719,-0.010243
7.1758,-1.318e-05
7.1797,0.0060185
7.1836,-0.0095108
7.1875,0.0053446
7.1914,0.0055216
7.1953,-0.0054967
7.1992,-0.0098974
7.2031,0.0037555
7.207,0.0063346
7.2109,0.004645
7.2148,0.0059029
7.2188,-0.0078673
7.2227,0.0046114
7.2266,-0.0036355
7.2305,-0.0035344
7.2344,-0.010598
7.2383,0.0081774
7.2422,0.0016763
7.2461,0.0076274
7.25,0.011342
7.2539,-0.0072546
7.2578,0.0054383
7.2617,0.00086915
7.2656,0.0074654
7.2695,0.0088722
7.2734,0.006903
7.2773,-0.0045885
7.2813,0.00040024
7.2852,0.003235
7.2891,0.023707
7.293,0.0099712
7.2969,0.017571
7.3008,0.0039325
7.3047,0.0023472
7.3086,0.0050507
7.3125,-0.0031411
7.3164,0.0092488
7.3203,-0.00075319
7.3242,-0.0094175
7.3281,0.0064601
7.332,-0.010697
7.3359,-0.012488
7.3398,0.0027753
7.3438,-0.0058344
7.3477,-0.0054698
7.3516,-0.00019213
7.3555,-0.0026182
7.3594,-0.00092384
7.3633,0.0023578
7.3672,-0.0080187
7.3711,-0.0085192
7.375,-0.014697
7.3789,-0.0024875
7.3828,0.0051621
7.3867,-0.0042992
7.3906,0.0043709
7.3945,0.0047401
7.3984,0.0079566
7.4023,0.0079347
7.4063,-0.0039691
7.4102,-0.0052069
7.4141,0.0011363
7.418,-0.0039691
7.4219,0.010946
7.4258,0.010384
7.4297,0.0012729
7.4336,-0.0024271
7.4375,0.004213
7.4414,-0.0040211
7.4453,-0.00023703
7.4492,-0.003068
7.4531,0.001469
7.457,0.0087376
7.4609,0.0060442
7.4648,0.0089263
7.4688,-0.0055579
7.4727,0.0022775
7.4766,-0.0058437
7.4805,0.00391
7.4844,0.0035186
7.4883,0.010349
7.4922,0.0088848
7.4961,0.0056659
7.5,-0.0025405
7.5039,-0.0022767
7.5078,-0.013291
7.5117,-0.001788
7.5156,-0.0094256
7.5195,0.008232
7.5234,0.0080739
7.5273,0.0026295
7.5313,-0.0011381
7.5352,0.0023984
7.5391,0.012588
7.543,0.010672
7.5469,-0.0020789
7.5508,0.0023184
7.5547,-0.0066894
7.5586,0.0042262
7.5625,0.0067986
7.5664,0.0080948
7.5703,-0.0090103
7.5742,0.0053627
7.5781,-0.0044569
7.582,-0.001234
7.5859,0.006761
7.5898,0.0031267
7.5938,-0.00018185
7.5977,0.0053607
7.6016,0.012806
7.6055,-0.0029898
7.6094,-0.0080538
7.6133,-0.0067905
7.6172,-0.0054305
7.6211,-0.0037227
7.625,0.0049242
7.6289,-0.013973
7.6328,0.0024857
7.6367,-0.004574
7.6406,0.0088249
7.6445,-0.0049258
7.6484,0.0011905
7.6523,-0.0055169
7.6563,-0.0037257
7.6602,-0.00072882
7.6641,-0.00045611
7.668,-0.0024968
7.6719,0.0092055
7.6758,0.0050703
7.6797,0.014206
7.6836,-0.00096949
7.6875,0.008479
7.6914,-0.013892
7.6953,0.0055474
7.6992,0.0037795
7.7031,-0.0013692
7.707,0.0062951
7.7109,0.0076516
7.7148,0.0087866
7.7188,0.0044408
7.7227,0.005673
7.7266,-0.0034474
7.7305,-0.0065906
7.7344,-0.00096138
7.7383,0.0019892
7.7422,0.007133
7.7461,-0.005394
7.75,-0.0033844
7.7539,0.021108
7.7578,-0.0042187
7.7617,0.013943
7.7656,0.0073653
7.7695,-0.00319
7.7734,0.00014586
7.7773,-0.0005179
7.7813,0.0044275
7.7852,0.010795
7.7891,-0.010396
7.793,0.01552
7.7969,0.0067011
7.8008,-0.0027304
7.8047,0.00017537
7.8086,0.0030912
7.8125,0.0030018
7.8164,0.0093946
7.8203,0.008684
7.8242,-0.0014315
7.8281,0.00033166
7.832,0.0065505
7.8359,0.0022562
7.8398,0.0094095
7.8438,-0.0035623
7.8477,0.0045395
7.8516,0.0031791
7.8555,0.010959
7.8594,-0.0083892
7.8633,0.0011454
7.8672,0.0015168
7.8711,-0.01545
7.875,0.0098856
7.8789,0.020876
7.8828,-0.00065478
7.8867,0.0030328
7.8906,-0.0022252
7.8945,0.003859
7.8984,-0.0014649
7.9023,0.00054897
7.9063,0.012705
7.9102,-0.0047932
7.9141,-0.0029802
7.918,0.00044896
7.9219,-6.5398e-06
7.9258,0.011143
7.9297,0.015465
7.9336,-0.0056127
7.9375,-0.0030257
7.9414,0.0053167
7.9453,-0.0010487
7.9492,0.015613
7.9531,0.012874
7.957,0.0050135
7.9609,0.0048274
7.9648,-0.0017119
7.9688,0.0059736
7.9727,0.0084632
7.9766,0.0014011
7.9805,0.013917
7.9844,0.0048893
7.9883,-0.00076103
7.9922,0.0025489
7.9961,0.0076494
8,-0.002882
8.0039,-0.00057453
8.0078,0.016943
8.0117,-0.0030502
8.0156,0.0071148
8.0195,0.006296
8.0234,0.011795
8.0273,0.0042952
8.0313,-0.016855
8.0352,-0.0054518
8.0391,0.0042016
8.043,0.0024259
8.0469,0.014521
8.0508,0.010658
8.0547,0.0043261
8.0586,0.0015156
8.0625,-0.0099119
8.0664,0.014276
8.0703,0.002044
8.0742,-0.0099097
8.0781,0.0039715
8.082,0.0015259
8.0859,-0.0033019
8.0898,0.0042042
8.0938,-0.004265
8.0977,-0.0087786
8.1016,-0.011677
8.1055,-0.0019261
8.1094,-0.0039095
8.1133,0.0035174
8.1172,-0.010287
8.1211,-0.0011099
8.125,-0.010164
8.1289,0.01345
8.1328,-2.6549e-07
8.1367,0.0096112
8.1406,0.0044573
8.1445,0.0073043
8.1484,-0.007413
8.1523,0.0095221
8.1563,0.010856
8.1602,-0.01404
8.1641,-0.00045265
8.168,-0.0036298
8.1719,0.002236
8.1758,-0.004834
8.1797,0.0030793
8.1836,0.0051641
8.1875,0.0024823
8.1914,-0.00022453
8.1953,-0.0085421
8.1992,0.0010556
8.2031,-0.0028892
8.207,-0.0080948
8.2109,0.00065427
8.2148,-0.00041655
8.2188,0.0023508
8.2227,0.0078821
8.2266,0.0048101
8.2305,0.0098858
8.2344,-0.0045097
8.2383,-0.0053911
8.2422,0.00018096
8.2461,0.01077
8.25,0.010302
8.2539,0.00020696
8.2578,-0.0032001
8.2617,-0.0098764
8.2656,0.0054567
8.2695,0.0007213
8.2734,-0.0078501
8.2773,-0.0018866
8.2813,-0.012383
8.2852,0.0037033
8.2891,-0.00046968
8.293,0.012349
8.2969,-0.0087657
8.3008,0.007824
8.3047,0.0023613
8.3086,0.0028099
8.3125,0.0088657
8.3164,0.014599
8.3203,0.0016985
8.3242,0.022293
8.3281,0.0084411
8.332,0.0135
8.3359,0.020271
8.3398,0.033819
8.3438,0.024157
8.3477,0.036638
8.3516,0.039112
8.3555,0.038582
8.3594,0.042114
8.3633,0.030116
8.3672,0.045435
8.3711,0.038888
8.375,0.04307
8.3789,0.030926
8.3828,0.038388
8.3867,0.044468
8.3906,0.045679
8.3945,0.038069
8.3984,0.025579
8.4023,0.030814
8.4063,0.039905
8.4102,0.043723
8.4141,0.041134
8.418,0.033309
8.4219,0.053332
8.4258,0.037841
8.4297,0.043381
8.4336,0.034337
8.4375,0.029501
8.4414,0.042418
8.4453,0.045135
8.4492,0.050891
8.4531,0.034415
8.457,0.026712
8.4609,0.049652
8.4648,0.040021
8.4688,0.030089
8.4727,0.033993
8.4766,0.032109
8.4805,0.045922
8.4844,0.0418
8.4883,0.039261
8.4922,0.039219
8.4961,0.031726
8.5,0.044609
8.5039,0.040109
8.5078,0.035905
8.5117,0.03656
8.5156,0.037303
8.5195,0.031962
8.5234,0.043744
8.5273,0.04864
8.5313,0.056561
8.5352,0.042826
8.5391,0.033526
8.543,0.040715
8.5469,0.032017
8.5508,0.034577
8.5547,0.033998
8.5586,0.032517
8.5625,0.04087
8.5664,0.030156
8.5703,0.042686
8.5742,0.043601
8.5781,0.045394
8.582,0.038037
8.5859,0.042687
8.5898,0.051157
8.5938,0.038823
8.5977,0.037166
8.6016,0.050883
8.6055,0.020508
8.6094,0.034919
8.6133,0.055257
8.6172,0.034698
8.6211,0.034068
8.625,0.02939
8.6289,0.043727
8.6328,0.023272
8.6367,0.032612
8.6406,0.042337
8.6445,0.038362
8.6484,0.042805
8.6523,0.039287
8.6563,0.043191
8.6602,0.029246
8.6641,0.039856
8.668,0.027201
8.6719,0.043792
8.6758,0.036063
8.6797,0.042952
8.6836,0.034644
8.6875,0.040957
8.6914,0.046305
8.6953,0.025051
8.6992,0.02597
8.7031,0.02624
8.707,0.045128
8.7109,0.041885
8.7148,0.033976
8.7188,0.049553
8.7227,0.040035
8.7266,0.028008
8.7305,0.032183
8.7344,0.029682
8.7383,0.046213
8.7422,0.035098
8.7461,0.030897
8.75,0.034942
8.7539,0.032998
8.7578,0.044908
8.7617,0.042285
8.7656,0.041126
8.7695,0.042008
8.7734,0.039409
8.7773,0.032354
8.7813,0.042763
8.7852,0.032932
8.7891,0.030948
8.793,0.030769
8.7969,0.044445
8.8008,0.045281
8.8047,0.026057
8.8086,0.037658
8.8125,0.040708
8.8164,0.0348
8.8203,0.044631
8.8242,0.041119
8.8281,0.038249
8.832,0.035352
8.8359,0.044019
8.8398,0.045173
8.8438,0.042433
8.8477,0.037381
8.8516,0.045549
8.8555,0.032548
8.8594,0.039839
8.8633,0.048473
8.8672,0.036983
8.8711,0.032077
8.875,0.051556
8.8789,0.035931
8.8828,0.040763
8.8867,0.031996
8.8906,0.039787
8.8945,0.041134
8.8984,0.037938
8.9023,0.04029
8.9063,0.046602
8.9102,0.02829
8.9141,0.039842
8.918,0.024507
8.9219,0.039001
8.9258,0.052662
8.9297,0.045852
8.9336,0.039283
8.9375,0.037002
8.9414,0.043105
8.9453,0.046745
8.9492,0.039223
8.9531,0.050354
8.957,0.032964
8.9609,0.024379
8.9648,0.03296
8.9688,0.036565
8.9727,0.03507
8.9766,0.031495
8.9805,0.046811
8.9844,0.025899
8.9883,0.033912
8.9922,0.030647
8.9961,0.034266
9,0.033001
9.0039,0.041161
9.0078,0.030486
9.0117,0.032162
9.0156,0.038892
9.0195,0.046174
9.0234,0.025835
9.0273,0.052165
9.0313,0.033679
9.0352,0.044783
9.0391,0.047723
9.043,0.049522
9.0469,0.036184
9.0508,0.039594
9.0547,0.037866
9.0586,0.034422
9.0625,0.040448
9.0664,0.040995
9.0703,0.035954
9.0742,0.03935
9.0781,0.057214
9.082,0.038057
9.0859,0.042868
9.0898,0.034309
9.0938,0.033666
9.0977,0.034921
9.1016,0.041491
9.1055,0.032084
9.1094,0.024938
9.1133,0.038656
9.1172,0.035341
9.1211,0.040471
9.125,0.039121
9.1289,0.043738
9.1328,0.045075
9.1367,0.029514
9.1406,0.02831
9.1445,0.042812
9.1484,0.041517
9.1523,0.0327
9.1563,0.047985
9.1602,0.039297
9.1641,0.039743
9.168,0.040624
9.1719,0.043867
9.1758,0.049184
9.1797,0.036428
9.1836,0.025908
9.1875,0.045165
9.1914,0.031288
9.1953,0.04651
9.1992,0.033454
9.2031,0.048127
9.207,0.031895
9.2109,0.029796
9.2148,0.044551
9.2188,0.028318
9.2227,0.042985
9.2266,0.041511
9.2305,0.037642
9.2344,0.03644
9.2383,0.053525
9.2422,0.036337
9.2461,0.037539
9.25,0.032063
9.2539,0.032739
9.2578,0.034177
9.2617,0.050247
9.2656,0.035283
9.2695,0.033043
9.2734,0.034602
9.2773,0.042653
9.2813,0.028155
9.2852,0.041836
9.2891,0.028051
9.293,0.036714
9.2969,0.024955
9.3008,0.041882
9.3047,0.04313
9.3086,0.033398
9.3125,0.040432
9.3164,0.039205
9.3203,0.046112
9.3242,0.038728
9.3281,0.045142
9.332,0.036995
9.3359,0.033287
9.3398,0.037633
9.3438,0.036478
9.3477,0.044062
9.3516,0.037345
9.3555,0.031705
9.3594,0.036485
9.3633,0.045926
9.3672,0.034515
9.3711,0.032624
9.375,0.043826
9.3789,0.036724
9.3828,0.031956
9.3867,0.027106
9.3906,0.019055
9.3945,0.027397
9.3984,0.020767
9.4023,0.022116
9.4063,0.0066952
9.4102,0.023738
9.4141,0.015394
9.418,-0.0014918
9.4219,0.014782
9.4258,0.001063
9.4297,0.0056101
9.4336,0.003761
9.4375,-0.0047287
9.4414,-0.018998
9.4453,0.0051106
9.4492,-0.00086037
9.4531,-0.0024499
9.457,0.0048605
9.4609,-0.0029545
9.4648,0.0066522
9.4688,0.0029793
9.4727,-0.0050371
9.4766,0.0079942
9.4805,0.0055403
9.4844,0.011104
9.4883,-0.0040677
9.4922,-0.0041534
9.4961,0.0043032
9.5,0.0067393
9.5039,0.0078664
9.5078,0.0020933
9.5117,0.00043062
9.5156,0.0067387
9.5195,0.015987
9.5234,0.0082855
9.5273,0.0025668
9.5313,-0.0021035
9.5352,0.0055527
9.5391,-0.0013017
9.543,0.0038861
9.5469,0.0076869
9.5508,0.0085744
9.5547,0.0059467
9.5586,0.011245
9.5625,0.014355
9.5664,-0.012289
9.5703,-0.011485
9.5742,-0.0054398
9.5781,-0.013127
9.582,-0.0017826
9.5859,-0.0021052
9.5898,0.0014201
9.5938,0.0010319
9.5977,-0.0063343
9.6016,-0.0074539
9.6055,0.0039718
9.6094,-0.0040865
9.6133,-0.010804
9.6172,-0.00087985
9.6211,0.00045329
9.625,-0.0040974
9.6289,0.0032305
9.6328,-0.00010865
9.6367,-0.0033781
9.6406,-0.0022875
9.6445,0.0011802
9.6484,-0.0052841
9.6523,-0.0097526
9.6563,-0.0035252
9.6602,-0.0016069
9.6641,0.0010572
9.668,-0.0027002
9.6719,-0.0055926
9.6758,0.0020251
9.6797,-0.0028311
9.6836,0.0037998
9.6875,-0.0024802
9.6914,-0.0018809
9.6953,-0.0024994
9.6992,-0.0083597
9.7031,-0.0083448
9.707,-0.0084649
9.7109,0.011135
9.7148,-0.0026812
9.7188,0.0056034
9.7227,0.0015972
9.7266,0.01236
9.7305,0.0057295
9.7344,-0.0096696
9.7383,-0.00357
9.7422,0.0047586
9.7461,0.00024442
9.75,0.014065
9.7539,-0.002361
9.7578,-0.013006
9.7617,0.0011162
9.7656,-0.0084717
9.7695,-0.001696
9.7734,0.005531
9.7773,1.2649e-05
9.7813,-0.0001535
9.7852,-0.0037994
9.7891,-0.0035833
9.793,-0.0034042
9.7969,-0.022555
9.8008,-1.7464e-05
9.8047,0.0042229
9.8086,-0.011889
9.8125,-0.013374
9.8164,0.0019071
9.8203,-0.012999
9.8242,-0.014063
9.8281,0.0035415
9.832,-0.0065236
9.8359,0.0070276
9.8398,-0.010817
9.8438,-0.0059619
9.8477,0.00011529
9.8516,0.0022781
9.8555,0.0016615
9.8594,-0.00033907
9.8633,-0.0033548
9.8672,-0.0058365
9.8711,0.0016784
9.875,-0.0044057
9.8789,0.0013712
9.8828,0.0061339
9.8867,-0.017429
9.8906,0.011252
9.8945,-0.0059686
9.8984,0.0078137
9.9023,0.0094643
9.9063,-0.011947
9.9102,-0.00042405
9.9141,0.022667
9.918,-0.0035401
9.9219,0.0012896
9.9258,0.00017311
9.9297,0.0069048
9.9336,0.0058397
9.9375,-0.0083762
9.9414,-0.0046923
9.9453,0.00076932
9.9492,-0.0022973
9.9531,0.015715
9.957,0.00056702
9.9609,0.00033581
9.9648,-0.0087433
9.9688,-0.011968
9.9727,0.0030935
9.9766,-0.003701
9.9805,0.0024342
9.9844,-0.0079981
9.9883,0.00414
9.9922,-0.015172
9.9961,0.0085552
10,0.0033172
10.004,-0.0019783
10.008,-0.011002
10.012,-0.0056086
10.016,-0.0010075
10.02,0.0057089
10.023,-0.010172
10.027,0.0062923
10.031,0.016777
10.035,-0.0061364
10.039,0.00092405
10.043,-0.0067651
10.047,-0.014024
10.051,0.0086518
10.055,0.0031766
10.059,-0.0054283
10.063,-0.0011457
10.066,-0.0036874
10.07,-0.01246
10.074,-0.022513
10.078,-0.002447
10.082,-0.0053694
10.086,-0.0061961
10.09,-0.0081479
10.094,-0.015065
10.098,-0.0059245
10.102,-0.0010658
10.105,-0.0096446
10.109,0.0011387
10.113,-0.0038966
10.117,-0.0026361
10.121,-0.012008
10.125,-0.0073125
10.129,0.00098976
10.133,-0.0074784
10.137,-0.00070383
10.141,0.012205
10.145,0.003902
10.148,0.0056372
10.152,0.01496
10.156,0.0065001
10.16,0.00090132
10.164,0.01181
10.168,-0.0084054
10.172,-0.0067945
10.176,0.012366
10.18,0.0013495
10.184,-0.0021854
10.188,0.0012467
10.191,-0.0040246
10.195,-0.0043963
10.199,-0.0052055
10.203,-0.0064629
10.207,-0.0092332
10.211,-0.0029654
10.215,-0.0065922
10.219,0.0076509
10.223,-0.00092735
10.227,0.0045632
10.23,-0.0037142
10.234,-0.0033596
10.238,0.0060666
10.242,0.0075167
10.246,-0.0026489
10.25,0.0091135
10.254,0.00059135
10.258,-4.0973e-05
10.262,0.012989
10.266,0.008453
10.27,0.0040617
10.273,0.00050114
10.277,-0.0061451
10.281,-0.0031166
10.285,0.01066
10.289,-0.01642
10.293,-0.0065586
10.297,-0.0033836
10.301,-0.0010714
10.305,-0.01486
10.309,0.0013575
10.313,0.0026674
10.316,-0.0092039
10.32,-0.0044182
10.324,-0.011184
10.328,0.0088561
10.332,-3.3966e-05
10.336,-0.0044983
10.34,-0.0093096
10.344,-0.0021024
10.348,0.0090625
10.352,-0.00098956
10.355,-0.0005837
10.359,-0.011756
10.363,-0.0022705
10.367,0.0019405
10.371,-0.013295
10.375,0.0046029
10.379,0.014298
10.383,-0.013882
10.387,-0.017209
10.391,-0.0028041
10.395,0.0034987
10.398,-0.0018369
10.402,-0.0015907
10.406,0.00043423
10.41,-0.0063791
10.414,-0.009949
10.418,0.013118
10.422,0.00408
10.426,-0.0063473
10.43,0.0097902
10.434,-0.006716
10.438,0.0019804
10.441,0.0084859
10.445,-0.0023497
10.449,0.0013682
10.453,0.0041887
10.457,0.017846
10.461,0.0073025
10.465,0.0012301
10.469,0.0024413
10.473,0.0019958
10.477,0.013083
10.48,0.0015861
10.484,-0.002365
10.488,0.0044812
10.492,0.0016192
10.496,0.0074253
10.5,0.0081933
10.504,0.0087806
10.508,0.005449
10.512,0.0052039
10.516,0.014101
10.52,-0.0076209
10.523,-0.0019276
10.527,-0.011526
10.531,0.0068548
10.535,0.00034453
10.539,-0.0021355
10.543,-0.01242
10.547,0.00083124
10.551,-0.0024849
10.555,-0.01039
10.559,-0.0091708
10.563,-0.0065918
10.566,-0.0032327
10.57,-0.013388
10.574,-0.0032377
10.578,0.0022738
10.582,-0.0047621
10.586,-0.0069575
10.59,0.00026834
10.594,0.0060732
10.598,-0.0046936
10.602,-0.004666
10.605,-0.01137
10.609,-0.0080231
10.613,0.0032159
10.617,-0.0019204
10.621,0.0041443
10.625,0.0032509
10.629,0.00091774
10.633,0.0034689
10.637,0.0087155
10.641,0.0020597
10.645,0.0011593
10.648,-0.001921
10.652,-0.010179
10.656,-0.00483
10.66,0.0010514
10.664,-0.0092364
10.668,0.0017118
10.672,0.00042458
10.676,-0.001374
10.68,-7.752e-05
10.684,-0.0020299
10.688,-0.0021989
10.691,-0.0018404
10.695,0.0050916
10.699,-0.0018844
10.703,-0.019832
10.707,-0.0046942
10.711,-0.00014231
10.715,0.004885
10.719,0.0074767
10.723,-0.009249
10.727,0.0026032
10.73,-0.0011495
10.734,-0.0042603
10.738,-0.0025175
10.742,-0.0027997
10.746,-0.0015552
10.75,-0.00086034
10.754,-0.0073103
10.758,-0.0099735
10.762,0.0042399
10.766,-0.0041305
10.77,0.007444
10.773,-0.0090744
10.777,-0.0067068
10.781,0.0076217
10.785,0.0076663
10.789,-0.0093662
10.793,-0.00042079
10.797,0.0077622
10.801,0.0077644
10.805,-0.010795
10.809,0.009604
10.813,0.0026922
10.816,-0.00047787
10.82,-0.0036957
10.824,-0.008868
10.828,-0.0012648
10.832,-0.0036677
10.836,0.014509
10.84,-0.00053
10.844,-0.0032055
10.848,-0.0022058
10.852,-0.0065457
10.855,0.012385
10.859,0.0022571
10.863,-0.0016396
10.867,0.0058863
10.871,-0.0021781
10.875,-0.0025531
10.879,-0.0057617
10.883,-0.006184
10.887,0.0094839
10.891,0.0035389
10.895,-0.0013023
10.898,0.010126
10.902,-0.0017616
10.906,0.00011039
10.91,-0.012012
10.914,0.0013337
10.918,-0.012336
10.922,-0.0091767
10.926,0.0044377
10.93,0.0001262
10.934,-0.0086002
10.938,-0.0053115
10.941,-0.00072452
10.945,-0.00098422
10.949,-0.014594
10.953,-0.01093
10.957,-0.014836
10.961,-0.0027311
10.965,-0.014358
10.969,0.0027445
10.973,-0.0094098
10.977,-0.010231
10.98,0.010149
10.984,0.012697
10.988,-0.0084351
10.992,-0.0029239
10.996,0.011209
11,-0.0065156
11.004,0.0093922
11.008,0.0029525
11.012,-0.0025596
11.016,-0.005539
11.02,0.0088946
11.023,0.0019952
11.027,-0.0073702
11.031,9.6136e-05
11.035,-0.0086338
11.039,-0.0011343
11.043,0.0088061
11.047,0.0017788
11.051,-0.0074323
11.055,0.00023035
11.059,-0.0073671
11.063,0.011671
11.066,-0.015396
11.07,-0.0073964
11.074,0.0027653
11.078,-0.0084231
11.082,-0.0024478
11.086,0.0020535
11.09,0.0062629
11.094,-0.0092826
11.098,-0.0040432
11.102,-0.0062917
11.105,-0.0038726
11.109,-0.00055843
11.113,-0.0076515
11.117,0.0022859
11.121,-0.00041405
11.125,-0.0067708
11.129,-0.0014132
11.133,0.003708
11.137,0.0038876
11.141,0.0016621
11.145,-0.0035274
11.148,-0.0075338
11.152,-0.0016886
11.156,-0.0066839
11.16,-0.0057937
11.164,0.0031125
11.168,0.0068823
11.172,0.00095526
11.176,0.011323
11.18,-0.014
11.184,-0.0030585
11.188,-0.0025861
11.191,0.0081408
11.195,0.00029415
11.199,-0.0054796
11.203,0.00080738
11.207,0.001511
11.211,-0.0016671
11.215,-0.017233
11.219,0.0043774
11.223,-0.027547
11.227,-0.0021437
11.23,-0.014004
11.234,-0.0056861
11.238,0.0066093
11.242,-0.0069206
11.246,0.010382
11.25,0.0025548
11.254,-0.0044139
11.258,-0.0087996
11.262,-0.0057306
11.266,0.00051536
11.27,-0.018885
11.273,0.0021917
11.277,-0.00022281
11.281,0.0035601
11.285,0.012215
11.289,-0.0046138
11.293,-0.0093697
11.297,0.0057502
11.301,0.0035744
11.305,-0.0038772
11.309,-0.0070986
11.313,-0.001104
11.316,-0.010792
11.32,-0.0023263
11.324,-0.007409
11.328,-0.0089216
11.332,0.0034134
11.336,-0.0034945
11.34,0.0056894
11.344,-0.011527
11.348,-0.0019693
11.352,-0.01081
11.355,0.0011965
11.359,0.0061824
11.363,0.0041965
11.367,-0.01809
11.371,0.0015687
11.375,-0.0032718
11.379,-0.0009749
11.383,-0.0071397
11.387,-0.014831
11.391,0.0032692
11.395,-0.0065439
11.398,-0.0052392
11.402,-0.001685
11.406,0.015097
11.41,0.013429
11.414,-0.012053
11.418,-0.0060349
11.422,0.0043022
11.426,-0.017395
11.43,0.0059539
11.434,-0.0051978
11.438,0.0068222
11.441,-0.009338
11.445,-0.0096051
11.449,0.013387
11.453,0.001322
11.457,-0.0048893
11.461,-0.0099071
11.465,0.0052427
11.469,-0.0001321
11.473,-0.018552
11.477,-0.0088866
11.48,0.018597
11.484,-0.002353
11.488,-0.016268
11.492,-0.0083026
11.496,-0.0049509
11.5,0.0028925
11.504,-0.0032809
11.508,-0.0015748
11.512,-0.0025984
11.516,-0.0094193
11.52,0.0055593
11.523,-0.0053584
11.527,-0.0060417
11.531,-0.0013492
11.535,-0.0031683
11.539,-0.0063736
11.543,-0.0018031
11.547,0.012212
11.551,0.0010781
11.555,-0.0073795
11.559,-0.0088693
11.563,-0.0043672
11.566,-0.013777
11.57,0.010307
11.574,-0.0011511
11.578,-0.010829
11.582,-0.0017504
11.586,-0.012775
11.59,0.0016411
11.594,-0.003617
11.598,-0.001869
11.602,0.00054308
11.605,0.0041105
11.609,-0.007654
11.613,-0.012399
11.617,-0.0029285
11.621,-0.0082005
11.625,0.00047538
11.629,-0.015706
11.633,0.0035166
11.637,-0.00028064
11.641,-0.010185
11.645,-0.0044891
11.648,0.0036818
11.652,0.014844
11.656,-0.0049095
11.66,0.0072266
11.664,-0.0087294
11.668,-0.001256
11.672,-0.0042493
11.676,-0.00043777
11.68,-0.006427
11.684,-0.013011
11.688,-0.0049234
11.691,5.381e-05
11.695,-0.0066893
11.699,-0.0044847
11.703,-0.00042033
11.707,0.00047356
11.711,-0.0085758
11.715,-0.0052893
11.719,0.0028144
11.723,-0.00091029
11.727,-0.012672
11.73,0.0078936
11.734,-0.007373
11.738,-0.0079826
11.742,-0.013207
11.746,-0.0040587
11.75,-0.004163
11.754,-0.0058472
11.758,-0.0095856
11.762,-0.01543
11.766,0.017601
11.77,0.0069046
11.773,-0.0062645
11.777,-0.0045735
11.781,-0.0012742
11.785,-0.0039583
11.789,-0.0079659
11.793,0.0026244
11.797,-0.012052
11.801,0.0098415
11.805,-0.016443
11.809,-0.0062425
11.813,0.0021984
11.816,-0.0032067
11.82,-0.014785
11.824,0.00223
11.828,-0.0032285
11.832,-0.010151
11.836,-0.0014305
11.84,0.0012705
11.844,0.011635
11.848,-0.0042212
11.852,-0.0054686
11.855,-0.0069176
11.859,-0.017068
11.863,5.7519e-05
11.867,-0.018364
11.871,-0.0059007
11.875,-0.0059928
11.879,0.0019763
11.883,-0.023478
11.887,0.0027408
11.891,-0.0073279
11.895,-0.012771
11.898,-0.0037337
11.902,-0.0021209
11.906,-0.0069002
11.91,-0.014426
11.914,0.0043801
11.918,-0.0028325
11.922,-0.0092544
11.926,0.0043669
11.93,-0.0015753
11.934,-0.013049
11.938,0.00038768
11.941,-0.016647
11.945,-0.011432
11.949,-0.0029378
11.953,-0.0011959
11.957,-0.0036898
11.961,-0.017875
11.965,0.0016687
11.969,0.0049895
11.973,0.0045613
11.977,-0.0075166
11.98,-0.006167
11.984,-0.010619
11.988,-0.001827
11.992,-0.0020539
11.996,-0.0095258
12,0.0022681
12.004,0.0017322
12.008,0.00039834
12.012,-0.0094548
12.016,-0.013438
12.02,0.00078038
12.023,0.0065026
12.027,-0.012804
12.031,-0.019294
12.035,0.0064385
12.039,-0.0042189
12.043,0.0044533
12.047,0.0029795
12.051,-0.012732
12.055,-0.0072896
12.059,-0.010236
12.063,-0.0031225
12.066,0.00383
12.07,-0.0040171
12.074,-0.019245
12.078,0.004356
12.082,-0.0043567
12.086,-0.0076397
12.09,-0.019286
12.094,-0.0017838
12.098,-0.0026671
12.102,-0.0019197
12.105,-0.011795
12.109,-0.0091748
12.113,-0.010373
12.117,0.0087675
12.121,-0.0097685
12.125,-0.0055434
12.129,-0.010659
12.133,0.0019042
12.137,-0.0047077
12.141,-0.0041069
12.145,0.0020646
12.148,0.00023451
12.152,0.001022
12.156,-0.019634
12.16,-0.0029926
12.164,0.0023618
12.168,-0.0018253
12.172,0.0023204
12.176,0.011199
12.18,0.005228
12.184,-0.011447
12.188,-0.0093779
12.191,-0.0044231
12.195,-0.0081443
12.199,-0.0041396
12.203,0.0051723
12.207,-0.0072023
12.211,-0.0054697
12.215,-0.0051615
12.219,0.0010297
12.223,0.0033915
12.227,-0.0051279
12.23,-0.0063267
12.234,0.00261
12.238,0.0012589
12.242,-0.0003068
12.246,0.019335
12.25,-0.0036465
12.254,-0.0016433
12.258,-0.0048526
12.262,-7.7475e-05
12.266,-0.008263
12.27,0.0025255
12.273,0.0083374
12.277,-0.0039541
12.281,-0.0049833
12.285,-0.0084246
12.289,-0.0077383
12.293,-0.016404
12.297,-0.0047363
12.301,-0.010622
12.305,0.0044178
12.309,-0.0034653
12.313,-0.004297
12.316,0.0050996
12.32,-0.017408
12.324,-0.0025259
12.328,-0.012292
12.332,-0.009293
12.336,-0.0028652
12.34,0.0016189
12.344,-0.010642
12.348,-0.00087801
12.352,0.0054741
12.355,-0.010892
12.359,-0.011818
12.363,-0.0048065
12.367,-0.00020115
12.371,-0.0045472
12.375,-0.010277
12.379,-0.0036439
12.383,-0.0028938
12.387,-0.0072326
12.391,-0.011402
12.395,0.00075501
12.398,-0.0003152
12.402,-0.00027119
12.406,0.001403
12.41,0.0066083
12.414,0.0087784
12.418,0.012548
12.422,0.033847
12.426,0.028035
12.43,0.022113
12.434,0.035177
12.438,0.050052
12.441,0.042219
12.445,0.061508
12.449,0.045698
12.453,0.047463
12.457,0.046404
12.461,0.062317
12.465,0.04999
12.469,0.056859
12.473,0.042034
12.477,0.049478
12.48,0.058116
12.484,0.044392
12.488,0.05381
12.492,0.057322
12.496,0.065978
12.5,0.057878
12.504,0.059987
12.508,0.050756
12.512,0.049152
12.516,0.053623
12.52,0.046864
12.523,0.061035
12.527,0.058467
12.531,0.059626
12.535,0.061538
12.539,0.05163
12.543,0.048062
12.547,0.05561
12.551,0.059818
12.555,0.057579
12.559,0.058115
12.563,0.062092
12.566,0.053629
12.57,0.060214
12.574,0.051799
12.578,0.057634
12.582,0.04226
12.586,0.063188
12.59,0.039822
12.594,0.05394
12.598,0.050196
12.602,0.04464
12.605,0.055392
12.609,0.055484
12.613,0.063131
12.617,0.054042
12.621,0.057031
12.625,0.054552
12.629,0.063164
12.633,0.060817
12.637,0.052993
12.641,0.053896
12.645,0.065643
12.648,0.051312
12.652,0.058908
12.656,0.046388
12.66,0.046954
12.664,0.058246
12.668,0.056649
12.672,0.059601
12.676,0.0478
12.68,0.059682
12.684,0.053897
12.688,0.052501
12.691,0.064894
12.695,0.063207
12.699,0.03723
12.703,0.055788
12.707,0.047382
12.711,0.051391
12.715,0.049118
12.719,0.065168
12.723,0.062539
12.727,0.057787
12.73,0.058944
12.734,0.057307
12.738,0.058963
12.742,0.055908
12.746,0.052826
12.75,0.057617
12.754,0.051789
12.758,0.051186
12.762,0.052105
12.766,0.053459
12.77,0.054223
12.773,0.072155
12.777,0.045685
12.781,0.046832
12.785,0.056213
12.789,0.054153
12.793,0.049342
12.797,0.056746
12.801,0.05961
12.805,0.045911
12.809,0.050935
12.813,0.044483
12.816,0.054035
12.82,0.054584
12.824,0.058372
12.828,0.046091
12.832,0.056145
12.836,0.05326
12.84,0.064249
12.844,0.056581
12.848,0.050502
12.852,0.052493
12.855,0.050106
12.859,0.063882
12.863,0.049956
12.867,0.042146
12.871,0.052101
12.875,0.061697
12.879,0.058438
12.883,0.055066
12.887,0.066679
12.891,0.050021
12.895,0.056099
12.898,0.048167
12.902,0.048814
12.906,0.052008
12.91,0.0591
12.914,0.069154
12.918,0.060417
12.922,0.04735
12.926,0.053626
12.93,0.05128
12.934,0.053202
12.938,0.063634
12.941,0.057922
12.945,0.062198
12.949,0.059382
12.953,0.049454
12.957,0.061615
12.961,0.045482
12.965,0.060699
12.969,0.059303
12.973,0.062867
12.977,0.045076
12.98,0.053719
12.984,0.055354
12.988,0.056037
12.992,0.06165
12.996,0.060548
13,0.060341
13.004,0.057108
13.008,0.067773
13.012,0.053653
13.016,0.056655
13.02,0.051827
13.023,0.055438
13.027,0.060994
13.031,0.047197
13.035,0.057242
13.039,0.050685
13.043,0.06139
13.047,0.041792
13.051,0.041699
13.055,0.066858
13.059,0.054229
13.063,0.041393
13.066,0.043538
13.07,0.055095
13.074,0.058167
13.078,0.05862
13.082,0.063907
13.086,0.058703
13.09,0.055686
13.094,0.063396
13.098,0.070319
13.102,0.055775
13.105,0.053793
13.109,0.062828
13.113,0.051948
13.117,0.045126
13.121,0.054937
13.125,0.057482
13.129,0.056814
13.133,0.047901
13.137,0.051615
13.141,0.051078
13.145,0.062695
13.148,0.055067
13.152,0.0606
13.156,0.060206
13.16,0.054534
13.164,0.041789
13.168,0.058274
13.172,0.060638
13.176,0.05035
13.18,0.055624
13.184,0.052739
13.188,0.068025
13.191,0.055883
13.195,0.057576
13.199,0.048673
13.203,0.050758
13.207,0.046223
13.211,0.060876
13.215,0.060033
13.219,0.050021
13.223,0.076521
13.227,0.062837
13.23,0.059379
13.234,0.070126
13.238,0.03918
13.242,0.055817
13.246,0.056212
13.25,0.057776
13.254,0.049053
13.258,0.060203
13.262,0.040849
13.266,0.057339
13.27,0.059731
13.273,0.056401
13.277,0.059358
13.281,0.051495
13.285,0.06089
13.289,0.054434
13.293,0.045383
13.297,0.054912
13.301,0.052694
13.305,0.049809
13.309,0.060619
13.313,0.057342
13.316,0.055261
13.32,0.053175
13.324,0.068864
13.328,0.065241
13.332,0.055533
13.336,0.057404
13.34,0.067424
13.344,0.069378
13.348,0.064507
13.352,0.054471
13.355,0.052761
13.359,0.062327
13.363,0.051029
13.367,0.049653
13.371,0.054747
13.375,0.063994
13.379,0.058289
13.383,0.058793
13.387,0.064899
13.391,0.058492
13.395,0.048677
13.398,0.062582
13.402,0.059891
13.406,0.055775
13.41,0.053341
13.414,0.052275
13.418,0.055857
13.422,0.050335
13.426,0.052425
13.43,0.045645
13.434,0.052614
13.438,0.051469
13.441,0.06048
13.445,0.066622
13.449,0.063438
13.453,0.062963
13.457,0.059152
13.461,0.056086
13.465,0.0542
13.469,0.039249
13.473,0.044919
13.477,0.024715
13.48,0.031732
13.484,0.015985
13.488,0.010045
13.492,0.0092995
13.496,-0.0005502
13.5,0.0055027
13.504,0.01061
13.508,-0.00091656
13.512,0.0032126
13.516,0.00043767
13.52,0.0080042
13.523,-0.0012386
13.527,0.0024248
13.531,0.018099
13.535,0.0088068
13.539,-0.0060215
13.543,0.0083563
13.547,-0.006129
13.551,0.0006097
13.555,0.0028394
13.559,0.0072117
13.563,-0.0015804
13.566,0.0050364
13.57,0.013586
13.574,-0.012673
13.578,-0.0071084
13.582,0.0087175
13.586,-0.0019419
13.59,-0.00015843
13.594,0.0066855
13.598,0.015916
13.602,-0.0090158
13.605,-0.0063243
13.609,-0.00060416
13.613,-0.00024727
13.617,0.00032609
13.621,-0.0027591
13.625,0.0080273
13.629,-0.0070218
13.633,0.00087134
13.637,0.0064166
13.641,0.0020065
13.645,-0.0051598
13.648,-4.3251e-05
13.652,-0.003254
13.656,-0.0053042
13.66,0.0085331
13.664,-0.0023217
13.668,-0.0048437
13.672,-0.0059231
13.676,0.00041892
13.68,-0.010954
13.684,-0.012042
13.688,0.00087034
13.691,-0.009732
13.695,-0.0035485
13.699,0.0046784
13.703,0.005651
13.707,0.0099872
13.711,-0.0081466
13.715,0.004981
13.719,0.0011934
13.723,0.0077951
13.727,0.00063224
13.73,0.0050454
13.734,0.0075582
13.738,-0.0032381
13.742,-0.0035073
13.746,-0.0096624
13.75,-0.00096716
13.754,0.002063
13.758,-0.0057852
13.762,-6.3127e-05
13.766,-0.0031025
13.77,-0.0036273
13.773,0.0049491
13.777,0.0052242
13.781,0.00758
13.785,-0.0082162
13.789,-0.0015301
13.793,0.0040267
13.797,-0.0097867
13.801,0.012979
13.805,0.0010588
13.809,-0.0043207
13.813,0.0070121
13.816,0.0025613
13.82,0.00081161
13.824,-0.0047017
13.828,-0.012385
13.832,-0.0067703
13.836,-0.0045737
13.84,0.0031875
13.844,0.00439
13.848,-0.0054134
13.852,0.0060797
13.855,0.00497
13.859,-0.00068977
13.863,-0.0066507
13.867,0.0062274
13.871,-0.0011447
13.875,-0.0075015
13.879,0.0013937
13.883,0.0033081
13.887,-0.010689
13.891,0.012923
13.895,-0.015358
13.898,-0.011588
13.902,0.0087728
13.906,0.0025365
13.91,-0.0027277
13.914,0.00038541
13.918,0.0054041
13.922,-0.0060208
13.926,0.0065575
13.93,0.0048361
13.934,-0.00044446
13.938,0.0012536
13.941,-0.0044887
13.945,-0.0060591
13.949,-0.0027649
13.953,0.0071738
13.957,-0.0019188
13.961,-0.0035278
13.965,-0.007292
13.969,-0.0083035
13.973,4.4211e-05
13.977,0.0074566
13.98,0.0089798
13.984,0.0043058
13.988,-0.0018724
13.992,-0.0023788
13.996,0.0027233
14,0.0067521
14.004,0.007089
14.008,-0.014632
14.012,0.00020992
14.016,-0.0061175
14.02,-0.0024737
14.023,0.013209
14.027,-0.0045425
14.031,-0.01099
14.035,0.0020944
14.039,-0.00011779
14.043,-0.0022331
14.047,0.0069118
14.051,0.0047345
14.055,0.0034639
14.059,-0.00107
14.063,0.0034275
14.066,-0.0010788
14.07,0.0022952
14.074,0.0050428
14.078,0.0033652
14.082,-0.0037667
14.086,-0.0027461
14.09,-0.0062256
14.094,0.0082514
14.098,0.0010512
14.102,-0.0034237
14.105,0.0059522
14.109,-0.0025505
14.113,0.0040993
14.117,0.011551
14.121,0.0073452
14.125,-0.00052276
14.129,-0.0002866
14.133,0.01415
14.137,-0.00077882
14.141,0.0025922
14.145,0.0028596
14.148,0.0072278
14.152,0.002356
14.156,0.0035487
14.16,0.0033179
14.164,0.020084
14.168,0.0072555
14.172,-0.0051648
14.176,-0.0075994
14.18,-0.010416
14.184,0.014025
14.188,-0.0047598
14.191,0.008054
14.195,0.0047992
14.199,-0.0098049
14.203,0.015258
14.207,0.0048453
14.211,0.013835
14.215,0.003449
14.219,0.0023687
14.223,-0.0060612
14.227,0.0014025
14.23,0.0020269
14.234,-0.0098315
14.238,0.00063976
14.242,0.0018038
14.246,-0.0045152
14.25,0.0034892
14.254,-0.0079384
14.258,-0.0033584
14.262,0.0014788
14.266,-0.0035616
14.27,0.0036364
14.273,-0.0019897
14.277,-0.0056524
14.281,0.0071342
14.285,0.0048775
14.289,0.0048002
14.293,0.0057189
14.297,0.0080726
14.301,0.0079287
14.305,0.0010771
14.309,-0.0024844
14.313,-0.00026273
14.316,0.009067
14.32,-0.0083706
14.324,-0.0040905
14.328,0.0071218
14.332,0.005635
14.336,-0.003875
14.34,-0.0018045
14.344,-0.0013848
14.348,-0.0021611
14.352,-0.017419
14.355,-0.0030928
14.359,0.0021829
14.363,0.017397
14.367,-0.010225
14.371,-0.0043282
14.375,-0.0025205
14.379,-0.0064257
14.383,-0.0044972
14.387,-0.013302
14.391,-0.00043847
14.395,-0.003247
14.398,0.004262
14.402,0.00092605
14.406,0.0080744
14.41,0.012007
14.414,0.001436
14.418,-0.0081044
14.422,0.0025098
14.426,0.010845
14.43,0.00045986
14.434,0.0040144
14.438,-0.0054892
14.441,0.012003
14.445,0.0040884
14.449,-0.0019336
14.453,-0.011038
14.457,-0.0043593
14.461,-0.0070586
14.465,-0.0035283
14.469,0.0022495
14.473,0.0056287
14.477,0.00097451
14.48,0.00072779
14.484,0.0032035
14.488,0.019886
14.492,0.0041777
14.496,0.0036028
14.5,0.014563
14.504,0.0047878
14.508,4.9001e-05
14.512,0.011942
14.516,0.0032774
14.52,0.0076433
14.523,0.012818
14.527,0.012784
14.531,-0.0037627
14.535,-0.0085964
14.539,0.0036453
14.543,0.020693
14.547,0.010939
14.551,0.0083258
14.555,0.0083163
14.559,0.016735
14.563,0.011701
14.566,0.012685
14.57,-0.0055625
14.574,0.0077772
14.578,0.0087986
14.582,0.0021302
14.586,0.0075597
14.59,0.0030148
14.594,0.013075
14.598,0.0026458
14.602,0.015737
14.605,0.0060498
14.609,0.012479
14.613,0.022032
14.617,0.0060289
14.621,0.015801
14.625,-0.0026292
14.629,0.017646
14.633,-0.0039089
14.637,0.0041235
14.641,0.0022566
14.645,-0.0035853
14.648,-0.0047775
14.652,0.0089216
14.656,-0.0056329
14.66,-0.0054629
14.664,0.011845
14.668,0.0037608
14.672,0.0063781
14.676,-0.0026679
14.68,0.0023945
14.684,0.0060902
14.688,0.0052548
14.691,0.016832
14.695,-0.00018725
14.699,0.0030969
14.703,0.0098738
14.707,0.01046
14.711,-0.010447
14.715,0.00053242
14.719,-0.0016049
14.723,0.0030446
14.727,0.006867
14.73,0.0064834
14.734,0.01151
14.738,0.0066523
14.742,0.0056775
14.746,0.010022
14.75,0.0062282
14.754,-0.0062826
14.758,0.0038143
14.762,-0.0086285
14.766,0.011022
14.77,-0.01162
14.773,-0.00051254
14.777,0.0040713
14.781,0.0030912
14.785,0.016575
14.789,0.0035284
14.793,-0.0013174
14.797,0.0070941
14.801,-0.0056335
14.805,0.0067433
14.809,0.0046823
14.813,0.00019415
14.816,-0.0013098
14.82,-0.0051597
14.824,-0.0098239
14.828,0.00065493
14.832,0.0092939
14.836,-0.0011888
14.84,0.015025
14.844,-0.0025968
14.848,0.018612
14.852,-0.0016664
14.855,0.0036951
14.859,0.012965
14.863,0.011466
14.867,-0.0025692
14.871,0.008157
14.875,-0.0047453
14.879,-0.0087437
14.883,0.0080947
14.887,-0.0088382
14.891,-0.011891
14.895,0.0025287
14.898,0.012425
14.902,0.010927
14.906,-0.0084923
14.91,0.0022126
14.914,0.0075993
14.918,0.0088571
14.922,0.013091
14.926,0.013353
14.93,0.0082461
14.934,-0.0078661
14.938,0.0024622
14.941,-0.0076358
14.945,0.010756
14.949,0.014261
14.953,-0.012299
14.957,0.0076982
14.961,-0.00065544
14.965,-0.001583
14.969,-0.0044208
14.973,0.010886
14.977,0.0047313
14.98,0.0012045
14.984,0.0049653
14.988,0.0091138
14.992,-0.0042661
14.996,-0.0037718
15,0.0067308
15.004,0.013137
15.008,0.010852
15.012,0.001279
15.016,-0.0072678
15.02,-0.014414
15.023,-0.0044507
15.027,0.0099966
15.031,-0.0019823
15.035,0.0038097
15.039,0.0032441
15.043,-0.01386
15.047,0.010571
15.051,0.016067
15.055,0.0015076
15.059,0.0088778
15.063,-0.0034998
15.066,0.0061175
15.07,0.016973
15.074,0.011306
15.078,-0.0028313
15.082,-0.0049844
15.086,0.0027261
15.09,0.00080488
15.094,0.0021491
15.098,0.011648
15.102,0.0042309
15.105,0.014388
15.109,0.0022478
15.113,0.0015484
15.117,0.0080714
15.121,0.0054843
15.125,0.0010118
15.129,-0.008711
15.133,-0.0053661
15.137,0.006889
15.141,0.0063732
15.145,-0.0078313
15.148,0.0034271
15.152,0.0063478
15.156,-0.0057156
15.16,-0.0045371
15.164,0.010818
15.168,-0.010227
15.172,0.005115
15.176,0.0086861
15.18,-0.011031
15.184,0.00062191
15.188,-0.0068464
15.191,0.0020076
15.195,-0.0017198
15.199,-0.010499
15.203,0.0055102
15.207,0.0054054
15.211,-0.0030513
15.215,0.0052431
15.219,-0.0077862
15.223,-0.0068192
15.227,-0.0061033
15.23,0.0013386
15.234,-0.0016366
15.238,0.015448
15.242,0.0012367
15.246,0.005523
15.25,0.005489
15.254,0.004043
15.258,0.0028492
15.262,0.010408
15.266,-0.0065441
15.27,0.013223
15.273,0.0063579
15.277,-0.0068728
15.281,0.0088317
15.285,0.0091267
15.289,0.012737
15.293,-0.0022721
15.297,0.01244
15.301,0.0029131
15.305,-0.0091162
15.309,-0.0041555
15.313,0.0078949
15.316,0.013893
15.32,-0.0073041
15.324,0.00015078
15.328,-0.0037399
15.332,0.014286
15.336,-0.0051442
15.34,0.010857
15.344,-0.0027432
15.348,0.0073261
15.352,-0.0074596
15.355,0.012505
15.359,-0.013737
15.363,0.0040464
15.367,0.0046654
15.371,-0.0041945
15.375,-0.0053126
15.379,0.0057389
15.383,-0.005972
15.387,0.0011253
15.391,-0.018576
15.395,-0.013246
15.398,0.0013047
15.402,0.0096837
15.406,-0.0097707
15.41,0.006726
15.414,0.005362
15.418,-0.0024338
15.422,0.0013782
15.426,0.016863
15.43,-0.0086887
15.434,0.0044881
15.438,0.0024648
15.441,0.0032064
15.445,0.00086731
15.449,0.0029574
15.453,-0.00065468
15.457,-0.010616
15.461,-0.0025054
15.465,0.003507
15.469,0.0038002
15.473,0.0062218
15.477,0.017507
15.48,-0.010137
15.484,0.0061025
15.488,0.0020336
15.492,0.00069594
15.496,-0.0039107
15.5,0.00022824
15.504,0.0061341
15.508,0.0045076
15.512,-0.0097742
15.516,0.0079612
15.52,0.0031959
15.523,0.014657
15.527,-0.0067599
15.531,-0.0040943
15.535,-0.011384
15.539,0.0011145
15.543,0.0082728
15.547,-0.0019752
15.551,-0.0020919
15.555,-0.00037887
15.559,0.00062675
15.563,0.0089644
15.566,0.0016977
15.57,-0.0020747
15.574,0.0054993
15.578,-0.0089874
15.582,0.0045923
15.586,-0.0012819
15.59,0.015283
15.594,-0.0043108
15.598,0.0034744
15.602,0.001507
15.605,-0.0068557
15.609,0.006979
15.613,-0.015041
15.617,-0.013175
15.621,-0.0087497
15.625,0.0097522
15.629,0.0075788
15.633,-0.0080662
15.637,-0.00032222
15.641,-0.0041919
15.645,0.0027453
15.648,0.015902
15.652,-0.0052568
15.656,0.01463
15.66,-0.0024735
15.664,-0.0037473
15.668,0.0052799
15.672,0.0061054
15.676,0.0031565
15.68,-0.0091801
15.684,-0.0037483
15.688,-0.0051106
15.691,-0.0027351
15.695,-0.0047743
15.699,0.0036554
15.703,0.0077054
15.707,-0.0013077
15.711,0.0042869
15.715,0.0056335
15.719,0.0011351
15.723,-0.001763
15.727,-0.0036266
15.73,-0.007913
15.734,-0.0015114
15.738,0.0016183
15.742,-0.00084259
15.746,0.001923
15.75,0.00056436
15.754,0.0048357
15.758,-0.0044516
15.762,-0.000841
15.766,0.0017725
15.77,-0.0024861
15.773,0.0022802
15.777,-0.012145
15.781,0.003712
15.785,0.0037601
15.789,0.00047295
15.793,-0.0020585
15.797,-0.0026943
15.801,-0.011778
15.805,0.00792
15.809,0.0045653
15.813,-0.0076979
15.816,-0.010501
15.82,-0.0027886
15.824,0.0047604
15.828,0.0058438
15.832,0.0037248
15.836,0.0053314
15.84,0.012235
15.844,-0.012313
15.848,0.0029831
15.852,-0.00075772
15.855,-0.0056504
15.859,0.0047913
15.863,-0.00018576
15.867,0.0085075
15.871,-0.0070994
15.875,-0.0055826
15.879,0.0036654
15.883,-0.005512
15.887,0.0017366
15.891,-0.0019099
15.895,0.0086734
15.898,0.0039444
15.902,-0.0020987
15.906,-0.0037919
15.91,-0.002146
15.914,0.017685
15.918,0.00046982
15.922,-0.00057784
15.926,-0.0005918
15.93,0.011357
15.934,-0.011902
15.938,0.0078593
15.941,-0.0054255
15.945,-0.0024953
15.949,0.004166
15.953,-0.0071523
15.957,0.0026679
15.961,-0.00066968
15.965,-0.0098901
15.969,0.0014226
15.973,0.0041634
15.977,0.0045418
15.98,-0.0039879
15.984,-9.2235e-05
15.988,0.0044469
15.992,0.003839
15.996,-0.0026897
16,-0.0089633
16.004,0.0019025
16.008,0.0021755
16.012,0.010526
16.016,-0.010987
16.02,-0.0023674
16.023,0.0033853
16.027,-0.00023553
16.031,0.014935
16.035,-0.0019904
16.039,-0.016187
16.043,0.0055364
16.047,-0.0097044
16.051,0.0093017
16.055,0.0027077
16.059,-0.002685
16.063,-0.0072353
16.066,0.012816
16.07,0.0018849
16.074,-0.0037412
16.078,-0.0051875
16.082,-0.0015686
16.086,0.0085374
16.09,0.013085
16.094,-0.00032022
16.098,0.0024426
16.102,0.0016949
16.105,-0.012196
16.109,0.00058189
16.113,-0.0037582
16.117,-0.0030673
16.121,-0.00092163
16.125,-0.020133
16.129,-0.0047599
16.133,0.0058582
16.137,0.0013827
16.141,-0.0031645
16.145,-0.0020271
16.148,-0.0073863
16.152,-0.0048081
16.156,-0.0040751
16.16,-0.0012534
16.164,0.0043437
16.168,0.00025239
16.172,9.3424e-05
16.176,-0.0050206
16.18,0.0079495
16.184,0.0027167
16.188,0.0049659
16.191,0.0023609
16.195,0.0063651
16.199,0.01124
16.203,-0.0025435
16.207,0.0043805
16.211,0.0054334
16.215,0.00067365
16.219,0.014349
16.223,-0.0060349
16.227,-0.0025465
16.23,0.0014058
16.234,0.00098752
16.238,-0.00080823
16.242,-0.0026126
16.246,0.0066808
16.25,0.00053763
16.254,-0.0046187
16.258,0.013278
16.262,0.0076133
16.266,0.011585
16.27,0.00066907
16.273,0.014145
16.277,0.0068244
16.281,-0.012719
16.285,-0.0090968
16.289,0.0038014
16.293,-0.0012953
16.297,-0.0016242
16.301,0.0068677
16.305,0.01119
16.309,0.0018207
16.313,-0.00012277
16.316,0.014849
16.32,-0.0011379
16.324,-0.0041708
16.328,-0.0050293
16.332,-0.0057842
16.336,0.00027084
16.34,-0.0061467
16.344,-0.013045
16.348,-0.0089633
16.352,0.0031106
16.355,0.0075701
16.359,0.0081717
16.363,0.015877
16.367,-0.0082209
16.371,0.0090764
16.375,2.9422e-05
16.379,-0.0038171
16.383,-0.0034904
16.387,0.0058364
16.391,0.0041548
16.395,-0.013186
16.398,0.0068848
16.402,0.0055661
16.406,-0.0018209
16.41,-0.0069709
16.414,-0.0053932
16.418,-0.0086722
16.422,-0.00033036
16.426,-0.0028103
16.43,-0.0023644
16.434,0.0013299
16.438,-0.0023811
16.441,-0.012294
16.445,-0.0045336
16.449,-0.0040292
16.453,-0.012544
16.457,0.0056967
16.461,-0.016104
16.465,0.0019697
16.469,-0.0032779
16.473,-0.003831
16.477,0.003402
16.48,-0.0031209
16.484,-0.0022727
16.488,-0.0064076
16.492,0.0083378
16.496,0.008339
16.5,0.0075869
16.504,0.0084139
16.508,0.012182
16.512,0.014625
16.516,0.015179
16.52,0.019239
16.523,0.011594
16.527,0.017972
16.531,0.02215
16.535,0.013108
16.539,0.017944
16.543,0.016275
16.547,0.026169
16.551,0.020705
16.555,0.025213
16.559,0.022021
16.563,0.024837
16.566,0.017003
16.57,0.018363
16.574,0.012954
16.578,0.020029
16.582,0.039011
16.586,0.018031
16.59,0.017118
16.594,0.023574
16.598,0.0064383
16.602,0.025381
16.605,0.011264
16.609,0.02111
16.613,0.018908
16.617,0.01636
16.621,0.011673
16.625,0.019629
16.629,0.02458
16.633,0.02141
16.637,0.026404
16.641,0.0066446
16.645,0.016509
16.648,0.0067171
16.652,0.016968
16.656,0.019898
16.66,0.010585
16.664,0.025073
16.668,0.012676
16.672,0.020497
16.676,0.013679
16.68,0.010785
16.684,0.010877
16.688,0.0057004
16.691,0.02654
16.695,-0.0016868
16.699,0.0063917
16.703,0.0014811
16.707,0.0061282
16.711,-0.0039297
16.715,0.020279
16.719,0.016482
16.723,0.0090177
16.727,0.0071649
16.73,0.0070906
16.734,0.014533
16.738,0.0023812
16.742,0.019823
16.746,0.016644
16.75,0.015217
16.754,0.022601
16.758,0.020762
16.762,0.016175
16.766,0.019082
16.77,0.018109
16.773,0.014723
16.777,0.027002
16.781,0.027539
16.785,0.019382
16.789,0.011424
16.793,0.010228
16.797,0.020181
16.801,0.016464
16.805,0.012544
16.809,0.019199
16.813,0.0098653
16.816,0.020632
16.82,0.0069591
16.824,0.00086255
16.828,0.016726
16.832,0.011207
16.836,0.028893
16.84,0.027672
16.844,0.013561
16.848,0.011044
16.852,0.016428
16.855,0.015872
16.859,0.02808
16.863,0.015974
16.867,0.027052
16.871,0.027296
16.875,0.036326
16.879,0.015755
16.883,0.014996
16.887,0.030126
16.891,0.012988
16.895,0.0053293
16.898,0.018785
16.902,0.02178
16.906,0.015822
16.91,0.016117
16.914,0.0091937
16.918,0.031222
16.922,0.0206
16.926,0.015343
16.93,0.022011
16.934,0.024977
16.938,0.011574
16.941,0.020522
16.945,0.015502
16.949,0.03059
16.953,0.020041
16.957,0.010938
16.961,0.018052
16.965,0.021948
16.969,0.03357
16.973,0.018953
16.977,0.022667
16.98,0.027034
16.984,0.022006
16.988,0.012083
16.992,0.016925
16.996,0.013318
17,0.023007
17.004,0.02909
17.008,0.018341
17.012,0.026275
17.016,0.014144
17.02,0.020321
17.023,0.017934
17.027,0.030597
17.031,0.020985
17.035,0.024159
17.039,0.016136
17.043,0.01387
17.047,0.020919
17.051,0.012116
17.055,0.0080956
17.059,0.015514
17.063,0.029026
17.066,0.01515
17.07,0.019781
17.074,0.014329
17.078,0.0042825
17.082,0.018941
17.086,0.03097
17.09,0.016625
17.094,0.010766
17.098,0.011809
17.102,0.021311
17.105,0.015706
17.109,0.025603
17.113,0.016705
17.117,0.0039595
17.121,0.015694
17.125,0.023959
17.129,0.026301
17.133,0.028198
17.137,0.026178
17.141,0.026599
17.145,0.032253
17.148,0.029561
17.152,0.019856
17.156,0.015241
17.16,0.016712
17.164,0.023798
17.168,0.027523
17.172,0.017348
17.176,0.029863
17.18,0.014059
17.184,0.015875
17.188,0.016383
17.191,0.014373
17.195,0.025121
17.199,0.017549
17.203,0.03186
17.207,0.018635
17.211,0.031836
17.215,0.0015002
17.219,0.021385
17.223,0.021064
17.227,0.03302
17.23,0.021439
17.234,0.032327
17.238,0.03315
17.242,0.01527
17.246,0.011053
17.25,0.025363
17.254,0.013422
17.258,0.018056
17.262,0.015183
17.266,0.020025
17.27,0.023624
17.273,0.02453
17.277,0.020532
17.281,0.012946
17.285,0.013691
17.289,0.021727
17.293,0.004118
17.297,0.011091
17.301,0.008121
17.305,0.016682
17.309,0.022295
17.313,0.035522
17.316,0.018777
17.32,0.011307
17.324,0.01571
17.328,0.022193
17.332,0.026168
17.336,0.015638
17.34,0.018766
17.344,0.027103
17.348,0.020258
17.352,0.019257
17.355,0.016409
17.359,0.016117
17.363,0.026397
17.367,0.015202
17.371,0.018631
17.375,0.011627
17.379,0.023174
17.383,0.020656
17.387,0.022044
17.391,0.018794
17.395,0.013806
17.398,0.018488
17.402,0.0099894
17.406,0.016584
17.41,0.035147
17.414,0.03049
17.418,0.024652
17.422,0.021519
17.426,0.024253
17.43,0.021234
17.434,0.0252
17.438,0.02728
17.441,0.011627
17.445,0.0175
17.449,0.018559
17.453,0.01466
17.457,0.011394
17.461,0.027331
17.465,0.023077
17.469,0.012025
17.473,0.011168
17.477,0.021747
17.48,0.013887
17.484,0.010221
17.488,0.016801
17.492,0.012389
17.496,0.024175
17.5,0.034311
17.504,0.0058561
17.508,0.023717
17.512,0.020627
17.516,0.011292
17.52,0.023218
17.523,0.0087094
17.527,-0.00036459
17.531,0.0024755
17.535,0.011768
17.539,0.0079332
17.543,0.0097979
17.547,0.0042828
17.551,0.0082377
17.555,-0.01601
17.559,-0.0048932
17.563,-0.0059874
17.566,-0.0042653
17.57,0.003514
17.574,-0.0087509
17.578,-0.0019537
17.582,-0.016967
17.586,-0.0096989
17.59,0.0035485
17.594,-0.015389
17.598,0.006948
17.602,-0.0064582
17.605,0.00073686
17.609,-0.011308
17.613,0.0022334
17.617,-0.0034052
17.621,0.0050049
17.625,-0.0082997
17.629,-0.010188
17.633,-0.010753
17.637,0.0083475
17.641,-0.0079474
17.645,-0.016855
17.648,0.0014047
17.652,-0.0049961
17.656,-0.0076354
17.66,-0.0014702
17.664,0.0011252
17.668,-0.0096708
17.672,-0.0043772
17.676,-0.0073438
17.68,-0.0092184
17.684,-0.0017414
17.688,5.6694e-05
17.691,-0.014613
17.695,0.0031161
17.699,-0.0034298
17.703,-0.0058739
17.707,-0.01518
17.711,-0.0055699
17.715,-0.0041338
17.719,-0.0028839
17.723,-0.0067369
17.727,0.0028555
17.73,0.0073877
17.734,0.0051497
17.738,-0.0051551
17.742,-0.00098825
17.746,-0.00030217
17.75,-0.0073935
17.754,-0.0029127
17.758,-0.0068629
17.762,-0.0021029
17.766,0.0088617
17.77,-0.0038118
17.773,-0.0076407
17.777,0.0072834
17.781,0.0037487
17.785,-0.006092
17.789,-0.0075369
17.793,0.0076834
17.797,-0.0020776
17.801,-0.0010376
17.805,5.0069e-05
17.809,-0.0069297
17.813,0.0052018
17.816,0.014191
17.82,-0.019932
17.824,-0.00080505
17.828,0.0045976
17.832,-0.0076525
17.836,-0.0014001
17.84,-0.00089685
17.844,-0.006438
17.848,0.0027183
17.852,0.0062747
17.855,-0.00072341
17.859,0.00036098
17.863,-0.0060691
17.867,0.0057081
17.871,-0.0029105
17.875,0.00069648
17.879,0.0057025
17.883,-0.0048598
17.887,-0.0041817
17.891,-0.0020733
17.895,-0.0040663
17.898,-0.011176
17.902,0.0014389
17.906,-0.012084
17.91,-0.0041528
17.914,-0.012224
17.918,0.0066064
17.922,-0.0022873
17.926,0.00030439
17.93,-0.0050181
17.934,0.0080575
17.938,-0.0060092
17.941,0.0049754
17.945,0.0049443
17.949,-0.0069564
17.953,-0.00018067
17.957,-0.0022271
17.961,0.01198
17.965,-0.0098485
17.969,-0.013898
17.973,-0.00041631
17.977,-0.0094134
17.98,-0.0066429
17.984,8.8222e-06
17.988,-0.011303
17.992,0.0056999
17.996,0.0013216
18,0.0085287
18.004,-0.0037403
18.008,0.0047744
18.012,-0.009844
18.016,-0.00051482
18.02,0.0054816
18.023,-0.0071919
18.027,-0.0020205
18.031,0.008984
18.035,-0.0080164
18.039,-0.010229
18.043,0.0042593
18.047,-0.0025512
18.051,-0.010287
18.055,-0.009001
18.059,-0.00043833
18.063,-0.0013545
18.066,-0.0057334
18.07,-0.0017282
18.074,0.0006095
18.078,-0.0085295
18.082,-0.0055725
18.086,-0.0083952
18.09,0.0062337
18.094,-0.012289
18.098,0.008145
18.102,-0.007311
18.105,-0.0032819
18.109,0.0035492
18.113,0.0020587
18.117,-0.0055151
18.121,0.0032138
18.125,-0.011412
18.129,0.0066748
18.133,0.0050813
18.137,-0.003013
18.141,-0.00028399
18.145,0.0038214
18.148,-0.005355
18.152,0.00091022
18.156,0.002008
18.16,-0.00015116
18.164,-0.012805
18.168,-0.0051659
18.172,-0.01683
18.176,-0.0056207
18.18,-0.0085119
18.184,-0.0035623
18.188,-0.00012606
18.191,0.0031718
18.195,-0.0036441
18.199,-0.0023441
18.203,0.0044715
18.207,0.006353
18.211,-0.0014306
18.215,0.0029711
18.219,-0.0083913
18.223,0.007939
18.227,-0.0079189
18.23,-0.0085406
18.234,0.00086088
18.238,-0.003233
18.242,-0.013862
18.246,0.00502
18.25,0.0022678
18.254,0.0088804
18.258,-0.00083362
18.262,0.0019462
18.266,-0.011233
18.27,0.010086
18.273,0.013794
18.277,-0.0055666
18.281,-0.0077073
18.285,0.0042956
18.289,-0.010845
18.293,-0.0018016
18.297,-0.0038955
18.301,0.0029089
18.305,-0.016771
18.309,-0.0018275
18.313,-0.00069172
18.316,-0.014972
18.32,-0.0035863
18.324,0.0018603
18.328,-0.011798
18.332,-0.0050755
18.336,-0.0016648
18.34,-0.0067568
18.344,0.0081316
18.348,0.0025366
18.352,-0.0069474
18.355,-0.00053359
18.359,0.0050117
18.363,-0.0013391
18.367,0.00073481
18.371,0.0012857
18.375,0.001964
18.379,-0.012575
18.383,-0.0079522
18.387,-0.005617
18.391,-0.014393
18.395,-0.013003
18.398,-0.00056393
18.402,-0.00056183
18.406,0.0034273
18.41,-0.0005452
18.414,-0.0085863
18.418,-0.0033262
18.422,-0.0083439
18.426,0.0027936
18.43,-0.014064
18.434,0.0026873
18.438,0.00015059
18.441,0.0021256
18.445,-0.0074117
18.449,-0.0019248
18.453,-0.0036159
18.457,-0.013998
18.461,0.00016671
18.465,-3.2685e-05
18.469,-0.0082953
18.473,0.005831
18.477,-0.015373
18.48,-0.0058294
18.484,-0.0057864
18.488,-0.0081991
18.492,-0.0079539
18.496,0.00011859
18.5,-0.0094258
18.504,-0.0026405
18.508,-0.0059946
18.512,-0.0037993
18.516,0.010778
18.52,-0.0068228
18.523,0.003067
18.527,-0.0031784
18.531,-0.0034412
18.535,-0.017191
18.539,0.0036622
18.543,-0.0019481
18.547,-0.0052631
18.551,-0.00084785
18.555,-0.00073574
18.559,0.014017
18.563,-0.0059962
18.566,-0.0016805
18.57,0.0043523
18.574,0.015678
18.578,0.0044788
18.582,0.010735
18.586,0.0085747
18.59,0.0088097
18.594,0.013292
18.598,0.020732
18.602,0.0057353
18.605,0.0026245
18.609,0.0058585
18.613,0.0021998
18.617,-0.012182
18.621,0.0032003
18.625,0.0051051
18.629,0.0012394
18.633,0.0021745
18.637,0.012246
18.641,0.0037679
18.645,0.0025356
18.648,-0.0024377
18.652,-0.0022038
18.656,0.00060291
18.66,0.0019216
18.664,0.0035753
18.668,0.012266
18.672,0.010185
18.676,-0.0079982
18.68,0.012747
18.684,-0.0067743
18.688,0.01828
18.691,0.0014584
18.695,-0.0030745
18.699,-0.014298
18.703,-0.002899
18.707,0.010685
18.711,-0.0033035
18.715,-0.0037291
18.719,-0.0099335
18.723,-0.0089945
18.727,-0.0047783
18.73,0.0018875
18.734,-0.015229
18.738,0.0040429
18.742,-0.0041549
18.746,0.0048287
18.75,-0.00099342
18.754,-0.0041667
18.758,0.0024859
18.762,0.0025013
18.766,0.013255
18.77,-0.010276
18.773,-0.0060695
18.777,-0.0097917
18.781,-0.0051786
18.785,-0.0046672
18.789,-0.0040907
18.793,-0.0041125
18.797,-0.0042336
18.801,-0.0021864
18.805,0.0025383
18.809,0.0073132
18.813,-0.0032589
18.816,0.012157
18.82,0.0054109
18.824,0.0079752
18.828,-0.0074066
18.832,-0.013252
18.836,0.0020271
18.84,0.0020378
18.844,-0.01266
18.848,-0.011429
18.852,0.0013432
18.855,0.0060991
18.859,0.0084432
18.863,-0.0074311
18.867,0.003593
18.871,0.0038714
18.875,-0.00060112
18.879,-0.0078498
18.883,-0.0083728
18.887,0.0044587
18.891,-0.012891
18.895,-0.0032607
18.898,-0.00028843
18.902,0.006419
18.906,-0.0038079
18.91,-0.01103
18.914,0.0013733
18.918,-0.0060991
18.922,0.0116
18.926,-0.0070952
18.93,0.00024923
18.934,0.013488
18.938,0.0065199
18.941,-0.0010367
18.945,0.002454
18.949,0.015981
18.953,0.0087663
18.957,-0.010686
18.961,-0.000126
18.965,0.0060067
18.969,-0.012406
18.973,0.00051309
18.977,-0.0019484
18.98,0.00065707
18.984,-0.0069738
18.988,-0.01408
18.992,-0.008599
18.996,0.012417
19,-0.0015571
19.004,-0.0071611
19.008,0.01013
19.012,0.0063721
19.016,-0.0061898
19.02,0.0074471
19.023,0.0075469
19.027,-0.0059812
19.031,0.0030923
19.035,-0.0035288
19.039,0.0078208
19.043,-0.0099856
19.047,-0.0039169
19.051,0.004855
19.055,-0.0014179
19.059,0.0033027
19.063,0.011576
19.066,-0.0036745
19.07,-0.0083521
19.074,0.010516
19.078,-0.0035446
19.082,0.0018584
19.086,-0.0045031
19.09,-0.011555
19.094,-0.0073032
19.098,0.0085046
19.102,-0.0038497
19.105,-0.0020448
19.109,0.00114
19.113,0.007367
19.117,0.0001157
19.121,-0.0028708
19.125,-0.0072154
19.129,0.0027826
19.133,-0.016189
19.137,-0.0096992
19.141,0.0039584
19.145,0.0021076
19.148,-0.0099114
19.152,0.0029973
19.156,0.0025053
19.16,-0.0092606
19.164,-0.0014591
19.168,0.010372
19.172,-0.0043765
19.176,-0.010301
19.18,0.0004547
19.184,-0.0045815
19.188,-0.0031783
19.191,0.0021959
19.195,-0.0011492
19.199,-0.0034739
19.203,-0.0080394
19.207,-0.0064868
19.211,-0.0078805
19.215,-0.0049212
19.219,0.011764
19.223,0.00029984
19.227,-0.0046601
19.23,-0.0016468
19.234,0.001099
19.238,0.0014748
19.242,0.0019388
19.246,0.007509
19.25,-0.0026111
19.254,0.0022568
19.258,-0.00477
19.262,-0.013691
19.266,-0.0046922
19.27,0.009363
19.273,-0.0030978
19.277,0.0067739
19.281,0.0039751
19.285,-0.0043279
19.289,0.01358
19.293,0.0063351
19.297,0.0065721
19.301,-0.0063119
19.305,-0.0046261
19.309,0.0042825
19.313,0.0079518
19.316,-0.00089464
19.32,0.011339
19.324,-0.0015983
19.328,0.0045497
19.332,-0.00030198
19.336,0.0075863
19.34,-0.0023476
19.344,-0.00020865
19.348,-0.010648
19.352,0.002146
19.355,0.00064273
19.359,0.0037499
19.363,0.0024038
19.367,-0.004757
19.371,0.0045942
19.375,0.018256
19.379,-0.0048196
19.383,0.0062768
19.387,-0.0043664
19.391,-0.0066228
19.395,-0.008056
19.398,0.0039856
19.402,0.00010773
19.406,0.0059394
19.41,-0.0017123
19.414,-0.0087625
19.418,-0.0018367
19.422,-0.00082396
19.426,0.0042434
19.43,-0.0084075
19.434,-0.012684
19.438,0.0037083
19.441,-0.0050068
19.445,-0.0030413
19.449,0.0042257
19.453,0.00036449
19.457,0.0013198
19.461,0.0084664
19.465,0.0075735
19.469,-4.2845e-06
19.473,-0.0038732
19.477,-0.008648
19.48,0.0019469
19.484,0.016031
19.488,0.007095
19.492,0.0013474
19.496,-0.0079236
19.5,-0.0087749
19.504,-0.0038701
19.508,-0.02668
19.512,0.0025799
19.516,0.0082599
19.52,0.00012355
19.523,-0.0030456
19.527,0.0087892
19.531,-0.0038532
19.535,-0.0050074
19.539,0.0055343
19.543,-0.00106
19.547,-0.0056124
19.551,0.0049944
19.555,-0.0043581
19.559,0.009723
19.563,-0.0051209
19.566,-0.0047643
19.57,-0.0049507
19.574,0.0020249
19.578,0.0087023
19.582,0.0019921
19.586,0.0047747
19.59,0.0080944
19.594,-0.0017738
19.598,0.0057865
19.602,-0.0018203
19.605,0.013922
19.609,0.00094653
19.613,-0.0047119
19.617,-0.00010527
19.621,-0.0059552
19.625,-0.0115
19.629,0.0017981
19.633,0.00098523
19.637,0.0039011
19.641,-0.0068662
19.645,-0.0068574
19.648,-0.0049722
19.652,-0.0089528
19.656,0.016913
19.66,0.00033993
19.664,-0.0069523
19.668,0.00073215
19.672,0.0065731
19.676,0.0028541
19.68,0.0047149
19.684,0.0017544
19.688,-0.012233
19.691,-0.0068991
19.695,0.0060517
19.699,-0.0026799
19.703,0.00081135
19.707,0.0032264
19.711,-0.0075896
19.715,0.0012449
19.719,-0.0030195
19.723,-0.010343
19.727,0.0027804
19.73,-0.0061138
19.734,-0.0038661
19.738,-0.0099392
19.742,-0.004881
19.746,0.0023443
19.75,0.010194
19.754,-0.0090813
19.758,0.0012097
19.762,0.0023502
19.766,0.0059651
19.77,0.0074816
19.773,-0.009213
19.777,-0.00089796
19.781,0.0074546
19.785,0.0027281
19.789,0.008959
19.793,0.0079308
19.797,0.016243
19.801,-0.018498
19.805,-0.0020183
19.809,-0.0018973
19.813,-0.0095585
19.816,-0.0032941
19.82,0.010277
19.824,0.00048968
19.828,0.0067794
19.832,0.011532
19.836,-0.0020591
19.84,-0.0028813
19.844,-0.0092979
19.848,-0.0019634
19.852,-0.0050727
19.855,-0.001566
19.859,-0.001585
19.863,-0.0051116
19.867,-0.008054
19.871,-0.0026775
19.875,6.6434e-06
19.879,-0.0065278
19.883,0.0022406
19.887,-0.0012462
19.891,-0.0019652
19.895,0.0064809
19.898,0.016503
19.902,0.0063187
19.906,0.0049527
19.91,0.00048504
19.914,0.0013882
19.918,0.004583
19.922,-0.003461
19.926,-0.010166
19.93,0.0033164
19.934,-0.0048217
19.938,0.0027802
19.941,-0.0059871
19.945,-0.0090226
19.949,-0.010056
19.953,0.0019417
19.957,0.013886
19.961,0.0015818
19.965,0.0036831
19.969,0.001212
19.973,0.0017325
19.977,0.016694
19.98,-0.0057073
19.984,-0.0014346
19.988,-0.0051618
19.992,0.0045989
19.996,0.0013089
20,-0.0028813
20.004,0.0045662
20.008,-0.0079393
20.012,-0.00013242
20.016,0.00032193
20.02,0.0099644
20.023,0.002625
20.027,-0.00093087
20.031,-0.01061
20.035,-0.011467
20.039,0.00318
20.043,-0.0058595
20.047,-0.0025033
20.051,-0.0068172
20.055,0.00074116
20.059,0.0011596
20.063,0.011902
20.066,0.012329
20.07,0.0067774
20.074,0.0066448
20.078,-0.0096056
20.082,0.0074291
20.086,-0.0083779
20.09,-0.012995
20.094,0.020879
20.098,0.00099121
20.102,-0.0057155
20.105,-0.00080948
20.109,-0.00029494
20.113,-0.015377
20.117,-0.0057369
20.121,0.003185
20.125,-0.00013561
20.129,-0.011972
20.133,-0.0035771
20.137,-0.0011574
20.141,0.00037979
20.145,-0.012221
20.148,0.001315
20.152,0.010248
20.156,-0.011825
20.16,0.0025749
20.164,0.0089796
20.168,0.0021002
20.172,0.0034351
20.176,-0.0042547
20.18,-0.0023242
20.184,-0.0091229
20.188,-0.0017777
20.191,-0.0046202
20.195,-0.0051247
20.199,0.0099687
20.203,-0.00097167
20.207,0.0043323
20.211,0.0024841
20.215,-0.0074033
20.219,-0.013596
20.223,-0.010295
20.227,0.0019319
20.23,-0.0020095
20.234,0.0055609
20.238,-0.0025462
20.242,-0.0093885
20.246,0.00037179
20.25,0.0071789
20.254,0.0010169
20.258,-0.0023338
20.262,-0.004043
20.266,0.0079462
20.27,0.0055422
20.273,-0.003856
20.277,-0.010254
20.281,-0.0071331
20.285,0.0017439
20.289,-0.0082434
20.293,-0.0030896
20.297,-0.00096506
20.301,-0.0044205
20.305,-0.0037613
20.309,-0.00052019
20.313,-0.0024381
20.316,-0.0077688
20.32,0.0070429
20.324,-0.0047181
20.328,0.008911
20.332,-0.0011284
20.336,-0.001222
20.34,0.0097631
20.344,0.0021207
20.348,-0.002854
20.352,-0.0060955
20.355,-0.004106
20.359,0.0022076
20.363,0.00523
20.367,-0.00051217
20.371,-0.0043521
20.375,0.0015934
20.379,0.0041686
20.383,-0.0032607
20.387,0.010285
20.391,-0.0021215
20.395,0.0071533
20.398,0.0079405
20.402,0.0017204
20.406,0.00088579
20.41,0.0077598
20.414,-0.011106
20.418,0.0018714
20.422,0.0020111
20.426,0.0038763
20.43,-0.0053268
20.434,-0.0095143
20.438,-0.018736
20.441,0.003242
20.445,0.0065554
20.449,-0.0045267
20.453,0.015288
20.457,-0.0060628
20.461,-0.010682
20.465,-0.0022642
20.469,-0.00031126
20.473,0.0039043
20.477,2.6486e-05
20.48,-0.0061796
20.484,-0.01153
20.488,-0.0049059
20.492,-0.010399
20.496,0.0043752
20.5,-0.0014347
20.504,-0.013744
20.508,0.0019976
20.512,-0.0071089
20.516,0.0088437
20.52,-0.00065884
20.523,-4.4799e-05
20.527,-0.0083201
20.531,-0.00072642
20.535,-0.0063209
20.539,-0.0083026
20.543,-0.015751
20.547,-0.013015
20.551,-0.0391
20.555,-0.024991
20.559,-0.022965
20.563,-0.03579
20.566,-0.034258
20.57,-0.04629
20.574,-0.044386
20.578,-0.052998
20.582,-0.043683
20.586,-0.050933
20.59,-0.046505
20.594,-0.057984
20.598,-0.05906
20.602,-0.056935
20.605,-0.049072
20.609,-0.076152
20.613,-0.070952
20.617,-0.05002
20.621,-0.045592
20.625,-0.060585
20.629,-0.049838
20.633,-0.044382
20.637,-0.058669
20.641,-0.06343
20.645,-0.063693
20.648,-0.062185
20.652,-0.054775
20.656,-0.061705
20.66,-0.046201
20.664,-0.063132
20.668,-0.0659
20.672,-0.057054
20.676,-0.059252
20.68,-0.057606
20.684,-0.075612
20.688,-0.061787
20.691,-0.073617
20.695,-0.059275
20.699,-0.05511
20.703,-0.052106
20.707,-0.055044
20.711,-0.056879
20.715,-0.054794
20.719,-0.06073
20.723,-0.060762
20.727,-0.053567
20.73,-0.053536
20.734,-0.065145
20.738,-0.075237
20.742,-0.079532
20.746,-0.07552
20.75,-0.071736
20.754,-0.061922
20.758,-0.070765
20.762,-0.065883
20.766,-0.06254
20.77,-0.074771
20.773,-0.070803
20.777,-0.069945
20.781,-0.070209
20.785,-0.067566
20.789,-0.058824
20.793,-0.067908
20.797,-0.059339
20.801,-0.061782
20.805,-0.062808
20.809,-0.057308
20.813,-0.049184
20.816,-0.054123
20.82,-0.075915
20.824,-0.061177
20.828,-0.073908
20.832,-0.079411
20.836,-0.073776
20.84,-0.080594
20.844,-0.073056
20.848,-0.055338
20.852,-0.068135
20.855,-0.045676
20.859,-0.061757
20.863,-0.057321
20.867,-0.065337
20.871,-0.06613
20.875,-0.069502
20.879,-0.062628
20.883,-0.074094
20.887,-0.069553
20.891,-0.07115
20.895,-0.062552
20.898,-0.053248
20.902,-0.048964
20.906,-0.076882
20.91,-0.062231
20.914,-0.069481
20.918,-0.072631
20.922,-0.064342
20.926,-0.068473
20.93,-0.064824
20.934,-0.059788
20.938,-0.071854
20.941,-0.066304
20.945,-0.077189
20.949,-0.067778
20.953,-0.057956
20.957,-0.077175
20.961,-0.061969
20.965,-0.074221
20.969,-0.063068
20.973,-0.067793
20.977,-0.066626
20.98,-0.076117
20.984,-0.071408
20.988,-0.066563
20.992,-0.064918
20.996,-0.066959
21,-0.070263
21.004,-0.056414
21.008,-0.067248
21.012,-0.071426
21.016,-0.071367
21.02,-0.06658
21.023,-0.059486
21.027,-0.069036
21.031,-0.059842
21.035,-0.064395
21.039,-0.070011
21.043,-0.071873
21.047,-0.06492
21.051,-0.066968
21.055,-0.072659
21.059,-0.071854
21.063,-0.062369
21.066,-0.062425
21.07,-0.068259
21.074,-0.060184
21.078,-0.068495
21.082,-0.066855
21.086,-0.057337
21.09,-0.069922
21.094,-0.080592
21.098,-0.07531
21.102,-0.064201
21.105,-0.067854
21.109,-0.046942
21.113,-0.076447
21.117,-0.068164
21.121,-0.066094
21.125,-0.075984
21.129,-0.058518
21.133,-0.060814
21.137,-0.05519
21.141,-0.061387
21.145,-0.091608
21.148,-0.07365
21.152,-0.064892
21.156,-0.073058
21.16,-0.065362
21.164,-0.067779
21.168,-0.071038
21.172,-0.066514
21.176,-0.063232
21.18,-0.058718
21.184,-0.07315
21.188,-0.070962
21.191,-0.072125
21.195,-0.061121
21.199,-0.056036
21.203,-0.05968
21.207,-0.057616
21.211,-0.065275
21.215,-0.072647
21.219,-0.062117
21.223,-0.054661
21.227,-0.063219
21.23,-0.060133
21.234,-0.077505
21.238,-0.062442
21.242,-0.067494
21.246,-0.062488
21.25,-0.057455
21.254,-0.071161
21.258,-0.056185
21.262,-0.073692
21.266,-0.06688
21.27,-0.065096
21.273,-0.05978
21.277,-0.069651
21.281,-0.074038
21.285,-0.057491
21.289,-0.065065
21.293,-0.081302
21.297,-0.06564
21.301,-0.080023
21.305,-0.062448
21.309,-0.058214
21.313,-0.06924
21.316,-0.074251
21.32,-0.059002
21.324,-0.071128
21.328,-0.073147
21.332,-0.076132
21.336,-0.077438
21.34,-0.064949
21.344,-0.069068
21.348,-0.060968
21.352,-0.066803
21.355,-0.067826
21.359,-0.078573
21.363,-0.072056
21.367,-0.06608
21.371,-0.070097
21.375,-0.058244
21.379,-0.080295
21.383,-0.068606
21.387,-0.066425
21.391,-0.072247
21.395,-0.066307
21.398,-0.055397
21.402,-0.07469
21.406,-0.069889
21.41,-0.077558
21.414,-0.062426
21.418,-0.076088
21.422,-0.073586
21.426,-0.057428
21.43,-0.061685
21.434,-0.072923
21.438,-0.060501
21.441,-0.072487
21.445,-0.067226
21.449,-0.05516
21.453,-0.052324
21.457,-0.071561
21.461,-0.068756
21.465,-0.061263
21.469,-0.064311
21.473,-0.070169
21.477,-0.06984
21.48,-0.073685
21.484,-0.083966
21.488,-0.068785
21.492,-0.075973
21.496,-0.069012
21.5,-0.049919
21.504,-0.067166
21.508,-0.056797
21.512,-0.07539
21.516,-0.058554
21.52,-0.079403
21.523,-0.069506
21.527,-0.065405
21.531,-0.063015
21.535,-0.068242
21.539,-0.075022
21.543,-0.076038
21.547,-0.072642
21.551,-0.074885
21.555,-0.071919
21.559,-0.074658
21.563,-0.059206
21.566,-0.066077
21.57,-0.065965
21.574,-0.073931
21.578,-0.066161
21.582,-0.066052
21.586,-0.075233
21.59,-0.077303
21.594,-0.082805
21.598,-0.063105
21.602,-0.076518
21.605,-0.069072
21.609,-0.068834
21.613,-0.068775
21.617,-0.073897
21.621,-0.0709
21.625,-0.071334
21.629,-0.059453
21.633,-0.077
21.637,-0.070132
21.641,-0.061022
21.645,-0.065505
21.648,-0.076113
21.652,-0.062744
21.656,-0.087381
21.66,-0.071679
21.664,-0.05704
21.668,-0.064562
21.672,-0.062499
21.676,-0.068819
21.68,-0.07096
21.684,-0.063471
21.688,-0.052093
21.691,-0.070375
21.695,-0.058191
21.699,-0.071891
21.703,-0.070666
21.707,-0.062332
21.711,-0.072264
21.715,-0.057655
21.719,-0.073965
21.723,-0.076121
21.727,-0.05626
21.73,-0.048252
21.734,-0.036527
21.738,-0.039463
21.742,-0.02838
21.746,-0.028515
21.75,-0.020906
21.754,-0.028541
21.758,-0.018727
21.762,-0.019441
21.766,-0.014467
21.77,0.0052918
21.773,-0.019637
21.777,-0.0088175
21.781,-0.011185
21.785,-0.006433
21.789,0.0032246
21.793,-0.0032795
21.797,-0.014483
21.801,-0.019906
21.805,-0.003611
21.809,-0.016494
21.813,-0.014528
21.816,-0.0062975
21.82,-0.020528
21.824,0.0011141
21.828,-0.0091623
21.832,-0.011395
21.836,-0.0037731
21.84,-0.0035087
21.844,-0.010755
21.848,-0.0010909
21.852,-0.0062917
21.855,-0.0011906
21.859,-0.007211
21.863,-0.010511
21.867,0.0031581
21.871,-0.01476
21.875,-0.0047466
21.879,0.005079
21.883,-0.012136
21.887,-0.0046948
21.891,-0.0068604
21.895,-0.011496
21.898,-0.0089728
21.902,-0.0045327
21.906,0.0075397
21.91,-0.0027619
21.914,-0.010923
21.918,-0.023338
21.922,-0.0077878
21.926,-0.007802
21.93,-0.015262
21.934,-0.0024739
21.938,-0.0067398
21.941,-0.0052166
21.945,-0.012651
21.949,-0.013883
21.953,-0.012172
21.957,-0.016517
21.961,-0.012132
21.965,-0.0030392
21.969,-0.023836
21.973,-0.020103
21.977,-0.0070671
21.98,-0.004645
21.984,-0.013457
21.988,-0.0028261
21.992,0.0023166
21.996,-0.0017927
22,-0.017766
22.004,-0.011969
22.008,-0.012919
22.012,-0.0093272
22.016,-0.011692
22.02,-0.012871
22.023,0.0066486
22.027,-0.0091187
22.031,-0.0077394
22.035,-0.0045522
22.039,-0.018788
22.043,-0.014635
22.047,-0.0033173
22.051,-0.0042518
22.055,-0.015021
22.059,0.0011258
22.063,-0.0072773
22.066,-0.0057566
22.07,-0.0059701
22.074,-0.010693
22.078,-0.019909
22.082,-0.0081225
22.086,-0.018542
22.09,-0.0089155
22.094,-0.0065209
22.098,-0.0067689
22.102,-0.018102
22.105,-0.005802
22.109,-0.017029
22.113,-0.0067572
22.117,-0.0043346
22.121,0.0026507
22.125,-0.02318
22.129,-0.0028032
22.133,-0.009756
22.137,-0.0090431
22.141,-0.012361
22.145,-0.0065913
22.148,-0.0099413
22.152,-0.01236
22.156,-0.011668
22.16,-0.0033679
22.164,-0.0041054
22.168,0.00034281
22.172,-0.0047629
22.176,-0.0083211
22.18,-0.015403
22.184,-0.0053047
22.188,-0.0099591
22.191,-0.006503
22.195,-0.0020993
22.199,-0.011858
22.203,-0.011736
22.207,-0.010014
22.211,-0.0065102
22.215,0.0065121
22.219,-0.014023
22.223,0.0015949
22.227,-0.0094572
22.23,-0.0016099
22.234,-0.0074945
22.238,-0.011574
22.242,-0.0094477
22.246,-0.00062306
22.25,0.0017605
22.254,-0.00022584
22.258,-0.010872
22.262,-0.015898
22.266,-0.0038705
22.27,-0.0029062
22.273,-0.024358
22.277,-0.0064091
22.281,0.0081888
22.285,-0.0080875
22.289,-0.011515
22.293,-0.01435
22.297,-0.020326
22.301,-0.011283
22.305,-0.0059781
22.309,-0.015329
22.313,-0.0068105
22.316,-0.0032243
22.32,-0.013136
22.324,-0.0055356
22.328,-0.0050027
22.332,-0.0091892
22.336,0.0051486
22.34,-0.017432
22.344,-0.0062415
22.348,-0.014528
22.352,-0.012924
22.355,-0.0046066
22.359,4.5119e-05
22.363,-0.006485
22.367,0.0014947
22.371,-0.014373
22.375,-0.0054505
22.379,-0.011576
22.383,-0.013056
22.387,-0.026086
22.391,-0.0018217
22.395,0.0063213
22.398,-0.0032396
22.402,0.0029794
22.406,-0.0064539
22.41,-0.015775
22.414,-0.013457
22.418,-0.013122
22.422,0.00027379
22.426,-0.010925
22.43,-0.0068599
22.434,-0.016923
22.438,-0.0088073
22.441,-0.01904
22.445,-0.012533
22.449,-0.002197
22.453,0.0045307
22.457,-0.0041323
22.461,-0.0069182
22.465,-8.3652e-05
22.469,-0.0025784
22.473,-0.025029
22.477,-0.020261
22.48,-0.013253
22.484,-0.013227
22.488,-0.018035
22.492,-0.011229
22.496,-0.012813
22.5,0.0016615
22.504,-0.010399
22.508,-0.015121
22.512,-0.0090634
22.516,-0.010966
22.52,-0.0042393
22.523,-0.0076724
22.527,-0.016478
22.531,-0.0018283
22.535,-0.0085152
22.539,-0.010268
22.543,-0.012211
22.547,-0.00079359
22.551,-0.0074105
22.555,-0.017812
22.559,0.0084117
22.563,-0.0093609
22.566,-0.0049584
22.57,-0.0042686
22.574,-0.015939
22.578,0.001971
22.582,-0.0048787
22.586,-0.0056171
22.59,0.0029919
22.594,-0.0052853
22.598,-0.018375
22.602,-0.0060678
22.605,0.0025143
22.609,0.0029748
22.613,-0.0037028
22.617,-0.017636
22.621,0.0019262
22.625,-0.0064164
22.629,-0.0048002
22.633,0.0028206
22.637,-0.0034251
22.641,-0.032625
22.645,-0.018149
22.648,-0.012393
22.652,-0.015878
22.656,-0.0058695
22.66,-0.0060162
22.664,-0.011997
22.668,0.0013232
22.672,-0.012225
22.676,-0.0087015
22.68,-0.010543
22.684,-0.011756
22.688,-0.0047092
22.691,-0.014758
22.695,-0.0070532
22.699,0.00095019
22.703,0.00067207
22.707,-0.019022
22.711,-0.0025049
22.715,-0.0086125
22.719,-0.0020079
22.723,-0.0035957
22.727,-0.0064628
22.73,-0.0035637
22.734,0.0016902
22.738,0.0033977
22.742,-0.0062302
22.746,-0.0096066
22.75,-0.0025627
22.754,0.0081815
22.758,0.0039393
22.762,0.0048341
22.766,-0.0005783
22.77,-0.0024198
22.773,0.018043
22.777,0.0028914
22.781,0.003608
22.785,0.0020632
22.789,0.0046112
22.793,0.0019586
22.797,-0.0030781
22.801,0.0078553
22.805,0.014552
22.809,0.0055673
22.813,-0.0012624
22.816,0.0039897
22.82,0.010286
22.824,0.015107
22.828,-0.0080093
22.832,0.0022135
22.836,-0.0020879
22.84,0.0045078
22.844,0.00165
22.848,-0.0038102
22.852,-0.012471
22.855,-0.0083082
22.859,-0.0040653
22.863,-0.0018107
22.867,0.0083013
22.871,-0.0043702
22.875,0.0023244
22.879,0.0059935
22.883,0.00116
22.887,7.9788e-05
22.891,-0.0048784
22.895,0.0053264
22.898,0.010805
22.902,0.0025454
22.906,0.0012511
22.91,0.00065191
22.914,0.006221
22.918,-0.0035101
22.922,-0.0048884
22.926,0.0023775
22.93,-0.0036713
22.934,0.0047073
22.938,-0.011989
22.941,0.0077697
22.945,-0.0066964
22.949,0.00024774
22.953,-0.0046882
22.957,0.0036626
22.961,-0.011478
22.965,-0.0091223
22.969,0.0098321
22.973,-0.0087278
22.977,-0.0068637
22.98,-0.0015656
22.984,-0.0077409
22.988,-0.0011622
22.992,0.0059977
22.996,-0.0019302
23,0.0097529
23.004,-0.012646
23.008,-0.0042465
23.012,-0.0081801
23.016,0.00085764
23.02,-0.01046
23.023,-0.013854
23.027,-0.0041681
23.031,-0.01429
23.035,-0.0079577
23.039,-0.0056857
23.043,-0.013858
23.047,0.001737
23.051,-0.0002137
23.055,-0.006811
23.059,-0.01209
23.063,-0.0039558
23.066,-0.0029237
23.07,-0.016872
23.074,0.0078635
23.078,0.0016958
23.082,-0.013886
23.086,0.012367
23.09,-0.0027901
23.094,-0.012095
23.098,-0.0080692
23.102,0.00058448
23.105,-0.011187
23.109,-0.0041508
23.113,-0.0014342
23.117,-0.0037607
23.121,0.00056094
23.125,-0.0060508
23.129,-0.0028697
23.133,0.00026036
23.137,-0.016692
23.141,-0.014426
23.145,-0.0082998
23.148,-0.00015273
23.152,0.0006705
23.156,-0.0060396
23.16,0.0082888
23.164,0.0069237
23.168,-0.0023956
23.172,0.022341
23.176,-0.003799
23.18,0.0056593
23.184,-0.0018487
23.188,-0.013695
23.191,0.011772
23.195,-0.0089513
23.199,-0.00071907
23.203,0.012571
23.207,0.0037211
23.211,0.0018855
23.215,-0.0017858
23.219,0.00089751
23.223,0.012461
23.227,-0.0041655
23.23,-0.0023919
23.234,-0.0039118
23.238,-0.0034705
23.242,-0.0017025
23.246,0.0038725
23.25,7.0359e-06
23.254,-0.0061616
23.258,0.010744
23.262,-0.0071652
23.266,-0.0033179
23.27,-0.00027093
23.273,-0.012527
23.277,-0.007572
23.281,-0.0094643
23.285,-0.019147
23.289,0.014682
23.293,-0.0057114
23.297,0.0052636
23.301,-0.00060811
23.305,-0.0077096
23.309,-0.00082857
23.313,0.0024939
23.316,-0.0082997
23.32,0.0083194
23.324,0.0082623
23.328,-0.0010469
23.332,0.003759
23.336,-0.0094366
23.34,0.0030414
23.344,-0.0020039
23.348,0.010271
23.352,-0.0078217
23.355,0.013225
23.359,-0.00083103
23.363,0.0021613
23.367,0.0092207
23.371,0.0067378
23.375,-0.0072518
23.379,-0.0074852
23.383,-0.0074136
23.387,0.0067109
23.391,-0.0018427
23.395,-0.004095
23.398,-0.00050197
23.402,0.0060702
23.406,-0.0025252
23.41,0.0007103
23.414,-0.017825
23.418,-0.006058
23.422,-0.0087099
23.426,-0.0055056
23.43,-0.0062094
23.434,-0.0036688
23.438,-0.0040426
23.441,0.0041885
23.445,0.0097976
23.449,-0.011103
23.453,0.012257
23.457,0.0090481
23.461,0.00075961
23.465,0.01141
23.469,0.002128
23.473,-0.0066554
23.477,0.0086575
23.48,0.016505
23.484,-0.0048374
23.488,-0.0066363
23.492,0.0082473
23.496,-0.00018704
23.5,-0.009767
23.504,0.0086582
23.508,-0.0010133
23.512,-0.0053317
23.516,-0.0036231
23.52,-0.0028951
23.523,0.0073165
23.527,-0.0074664
23.531,0.0040315
23.535,0.0078398
23.539,-0.0052977
23.543,0.0031967
23.547,-0.010829
23.551,0.0057795
23.555,-0.0071376
23.559,0.0064189
23.563,0.0037057
23.566,-0.0023148
23.57,-0.0098728
23.574,0.010038
23.578,0.0017464
23.582,0.012571
23.586,0.0008133
23.59,-0.011769
23.594,0.012832
23.598,-0.001089
23.602,0.0075842
23.605,-0.0040374
23.609,0.0053332
23.613,0.006764
23.617,0.0078286
23.621,0.0040111
23.625,7.949e-05
23.629,0.0013713
23.633,0.0025526
23.637,-0.004704
23.641,0.0044923
23.645,-0.006912
23.648,-0.01293
23.652,0.001576
23.656,0.0016231
23.66,0.0016405
23.664,0.012552
23.668,0.0087839
23.672,0.013407
23.676,0.0020201
23.68,0.0071355
23.684,-0.0032633
23.688,-0.00058327
23.691,-0.011248
23.695,0.0016207
23.699,0.0076962
23.703,-0.0062818
23.707,-0.00023365
23.711,-0.0035483
23.715,-0.0038355
23.719,0.0086033
23.723,0.0030107
23.727,0.0079894
23.73,0.0056642
23.734,0.0094437
23.738,-0.01327
23.742,-0.0047296
23.746,0.0010834
23.75,0.004598
23.754,0.010166
23.758,-0.0024902
23.762,-0.0021903
23.766,0.0001564
23.77,0.0071528
23.773,0.0029818
23.777,0.010082
23.781,-0.0035356
23.785,0.0045817
23.789,0.0041806
23.793,-0.010335
23.797,0.0033415
23.801,0.013598
23.805,-0.007081
23.809,-0.0030479
23.813,-0.0057304
23.816,0.0093808
23.82,-0.0026197
23.824,0.006592
23.828,-0.010289
23.832,-0.011369
23.836,0.0088332
23.84,0.0062564
23.844,0.0042572
23.848,0.0092009
23.852,0.0027803
23.855,0.0031281
23.859,-0.0042287
23.863,0.0019121
23.867,-0.0059354
23.871,-0.0043589
23.875,-0.0013142
23.879,0.0031155
23.883,0.013456
23.887,0.0047015
23.891,0.0047791
23.895,0.0056287
23.898,0.010196
23.902,0.0056873
23.906,0.0019054
23.91,-0.0017765
23.914,0.0053087
23.918,-0.011014
23.922,0.0010402
23.926,0.0073529
23.93,-0.00089585
23.934,0.0049037
23.938,0.0021892
23.941,0.0052424
23.945,-0.0022857
23.949,0.013083
23.953,0.004123
23.957,0.0024024
23.961,-0.0068598
23.965,0.0004229
23.969,-0.0081474
23.973,0.00033145
23.977,-0.0060648
23.98,0.0023405
23.984,0.0039256
23.988,-0.00061893
23.992,0.014253
23.996,0.012279
24,0.012528
24.004,0.0066885
24.008,0.0080293
24.012,-0.002171
24.016,0.0032663
24.02,-0.0058846
24.023,0.0033427
24.027,0.009263
24.031,-0.0070126
24.035,-0.00098024
24.039,-0.0099486
24.043,0.0048189
24.047,0.0094771
24.051,0.009135
24.055,-0.0059805
24.059,-0.0036187
24.063,0.00070097
24.066,-0.0013944
24.07,-0.0023541
24.074,-0.016463
24.078,0.0059432
24.082,-0.00014004
24.086,0.006495
24.09,0.0035193
24.094,-0.019376
24.098,-0.00042348
24.102,0.0072771
24.105,0.0091086
24.109,-0.00054278
24.113,0.0053433
24.117,0.0032936
24.121,0.0080744
24.125,0.015394
24.129,-0.0049686
24.133,0.016305
24.137,0.0029567
24.141,-0.0042287
24.145,-0.0043321
24.148,0.0022127
24.152,0.002362
24.156,0.0043367
24.16,0.0073661
24.164,0.004192
24.168,-0.005486
24.172,-0.0030158
24.176,-0.00343
24.18,-0.0022035
24.184,0.0044935
24.188,0.004395
24.191,0.00038511
24.195,-0.0050569
24.199,-0.0002959
24.203,0.0062073
24.207,0.0010156
24.211,0.012041
24.215,-0.0040073
24.219,0.0038142
24.223,0.0098895
24.227,-0.0042477
24.23,0.0015863
24.234,-0.0064402
24.238,-0.0043082
24.242,-0.0079261
24.246,-0.0043872
24.25,0.0046445
24.254,0.00014689
24.258,0.005832
24.262,0.0089657
24.266,0.0043803
24.27,0.0074861
24.273,0.0074976
24.277,0.018866
24.281,0.0074327
24.285,-0.0087173
24.289,0.0036338
24.293,0.0060231
24.297,0.0078485
24.301,0.0069672
24.305,-0.0021975
24.309,0.0015904
24.313,0.0039229
24.316,0.0030553
24.32,0.015902
24.324,-0.0097603
24.328,0.0076863
24.332,0.010091
24.336,-0.0024135
24.34,0.0053049
24.344,0.0011723
24.348,-0.0055428
24.352,0.0024027
24.355,0.013378
24.359,-0.0013821
24.363,0.0057081
24.367,-0.0068419
24.371,-0.0056063
24.375,-0.0079935
24.379,-0.0094639
24.383,-0.0060034
24.387,-0.0056573
24.391,-0.0023352
24.395,-0.010726
24.398,-0.0025863
24.402,-0.0043938
24.406,-0.0044535
24.41,-0.0010159
24.414,0.0095806
24.418,0.0013531
24.422,0.0044954
24.426,0.012907
24.43,0.0067467
24.434,0.003022
24.438,0.0099216
24.441,0.018026
24.445,-0.0015239
24.449,0.0078823
24.453,-0.00418
24.457,-0.0075399
24.461,-0.0037075
24.465,0.00045647
24.469,-0.012929
24.473,-0.010388
24.477,0.00043828
24.48,0.0049514
24.484,0.0060928
24.488,0.003505
24.492,-0.00088108
24.496,0.0042455
24.5,0.018337
24.504,0.014947
24.508,0.00079603
24.512,0.011415
24.516,-0.0028342
24.52,0.0041275
24.523,0.0027295
24.527,0.0071491
24.531,-0.0068041
24.535,0.0062297
24.539,0.003025
24.543,0.0041496
24.547,-0.0054938
24.551,-0.0010914
24.555,-0.0093473
24.559,-0.0037452
24.563,-0.0055138
24.566,-0.0011494
24.57,0.0026578
24.574,0.0078847
24.578,-0.0047837
24.582,0.0063667
24.586,0.01422
24.59,0.016303
24.594,0.0017861
24.598,0.022161
24.602,0.019853
24.605,0.034825
24.609,0.035463
24.613,0.030006
24.617,0.037633
24.621,0.042189
24.625,0.02353
24.629,0.038388
24.633,0.04115
24.637,0.036532
24.641,0.029091
24.645,0.050781
24.648,0.040335
24.652,0.052795
24.656,0.037635
24.66,0.051152
24.664,0.049467
24.668,0.048577
24.672,0.037412
24.676,0.043611
24.68,0.041651
24.684,0.038278
24.688,0.042015
24.691,0.033807
24.695,0.044274
24.699,0.044093
24.703,0.039671
24.707,0.050054
24.711,0.038064
24.715,0.043604
24.719,0.048923
24.723,0.046568
24.727,0.027971
24.73,0.039348
24.734,0.041846
24.738,0.040726
24.742,0.034993
24.746,0.044167
24.75,0.04319
24.754,0.053332
24.758,0.045017
24.762,0.049204
24.766,0.043347
24.77,0.031458
24.773,0.034062
24.777,0.039267
24.781,0.041581
24.785,0.048749
24.789,0.038759
24.793,0.040166
24.797,0.046352
24.801,0.040491
24.805,0.035711
24.809,0.040434
24.813,0.039533
24.816,0.049261
24.82,0.046012
24.824,0.048408
24.828,0.041448
24.832,0.059881
24.836,0.045978
24.84,0.039064
24.844,0.036599
24.848,0.047018
24.852,0.043725
24.855,0.037215
24.859,0.043541
24.863,0.035404
24.867,0.051817
24.871,0.060869
24.875,0.052548
24.879,0.045239
24.883,0.057322
24.887,0.049885
24.891,0.032181
24.895,0.04684
24.898,0.048397
24.902,0.051826
24.906,0.046754
24.91,0.056329
24.914,0.038767
24.918,0.065657
24.922,0.057885
24.926,0.046573
24.93,0.0503
24.934,0.04201
24.938,0.041508
24.941,0.04854
24.945,0.05489
24.949,0.054386
24.953,0.062825
24.957,0.045354
24.961,0.045979
24.965,0.028121
24.969,0.045189
24.973,0.048356
24.977,0.047601
24.98,0.042845
24.984,0.038501
24.988,0.044967
24.992,0.063775
24.996,0.04204
25,0.049057
25.004,0.041303
25.008,0.058185
25.012,0.055967
25.016,0.051951
25.02,0.050791
25.023,0.061727
25.027,0.055283
25.031,0.050884
25.035,0.051426
25.039,0.060829
25.043,0.052974
25.047,0.051019
25.051,0.052913
25.055,0.048073
25.059,0.04172
25.063,0.051249
25.066,0.037142
25.07,0.043707
25.074,0.056165
25.078,0.043917
25.082,0.050935
25.086,0.047699
25.09,0.05132
25.094,0.052397
25.098,0.045817
25.102,0.034254
25.105,0.056433
25.109,0.04526
25.113,0.051269
25.117,0.056183
25.121,0.041724
25.125,0.058255
25.129,0.054555
25.133,0.050092
25.137,0.046609
25.141,0.05762
25.145,0.05224
25.148,0.052874
25.152,0.068194
25.156,0.053129
25.16,0.057588
25.164,0.048978
25.168,0.062157
25.172,0.048829
25.176,0.042566
25.18,0.049594
25.184,0.03769
25.188,0.058824
25.191,0.041652
25.195,0.052091
25.199,0.056624
25.203,0.05363
25.207,0.052934
25.211,0.044282
25.215,0.050117
25.219,0.057165
25.223,0.045191
25.227,0.041758
25.23,0.045375
25.234,0.056138
25.238,0.047951
25.242,0.051318
25.246,0.037312
25.25,0.044139
25.254,0.044632
25.258,0.040614
25.262,0.057875
25.266,0.056976
25.27,0.038655
25.273,0.051694
25.277,0.043354
25.281,0.049288
25.285,0.051026
25.289,0.062935
25.293,0.053474
25.297,0.046092
25.301,0.056413
25.305,0.056524
25.309,0.051165
25.313,0.066
25.316,0.049019
25.32,0.04706
25.324,0.054273
25.328,0.041252
25.332,0.047529
25.336,0.046542
25.34,0.059932
25.344,0.055201
25.348,0.054472
25.352,0.056681
25.355,0.056544
25.359,0.050419
25.363,0.040187
25.367,0.038359
25.371,0.050608
25.375,0.062239
25.379,0.056493
25.383,0.058132
25.387,0.063461
25.391,0.047351
25.395,0.046273
25.398,0.058499
25.402,0.045574
25.406,0.066111
25.41,0.056733
25.414,0.045805
25.418,0.047534
25.422,0.05379
25.426,0.055135
25.43,0.05842
25.434,0.05267
25.438,0.043208
25.441,0.051139
25.445,0.039683
25.449,0.05466
25.453,0.054661
25.457,0.051683
25.461,0.044131
25.465,0.059704
25.469,0.057692
25.473,0.045647
25.477,0.041178
25.48,0.057599
25.484,0.054636
25.488,0.050376
25.492,0.051687
25.496,0.054575
25.5,0.046413
25.504,0.060367
25.508,0.05187
25.512,0.044139
25.516,0.04625
25.52,0.060527
25.523,0.045364
25.527,0.042449
25.531,0.05806
25.535,0.052112
25.539,0.06545
25.543,0.048044
25.547,0.054537
25.551,0.049941
25.555,0.053112
25.559,0.038719
25.563,0.051596
25.566,0.055128
25.57,0.04968
25.574,0.047268
25.578,0.050157
25.582,0.035359
25.586,0.058991
25.59,0.052581
25.594,0.053892
25.598,0.054403
25.602,0.051554
25.605,0.059247
25.609,0.040782
25.613,0.047199
25.617,0.053776
25.621,0.043657
25.625,0.045313
25.629,0.02591
25.633,0.036299
25.637,0.038046
25.641,0.01126
25.645,0.022274
25.648,0.011971
25.652,0.010466
25.656,0.018962
25.66,0.019765
25.664,0.008325
25.668,0.0045098
25.672,0.019985
25.676,0.0063112
25.68,0.0097388
25.684,0.0049447
25.688,0.011383
25.691,-0.00055287
25.695,0.0083867
25.699,0.001975
25.703,0.0067856
25.707,0.012874
25.711,0.021725
25.715,0.0046111
25.719,0.011603
25.723,0.0046997
25.727,0.0086976
25.73,0.027866
25.734,0.0095654
25.738,0.0041295
25.742,0.015497
25.746,0.015014
25.75,-0.002221
25.754,0.0040584
25.758,0.0054225
25.762,0.0067534
25.766,0.009204
25.77,0.0043976
25.773,0.011337
25.777,0.011556
25.781,0.0022814
25.785,0.01096
25.789,0.00044843
25.793,0.014263
25.797,0.0068924
25.801,0.013385
25.805,0.001102
25.809,0.013493
25.813,0.0059115
25.816,0.0073447
25.82,0.0060089
25.824,0.012776
25.828,0.020837
25.832,0.014387
25.836,0.0080824
25.84,0.0022693
25.844,0.0077185
25.848,-0.00041195
25.852,0.0055745
25.855,0.012515
25.859,0.0050588
25.863,0.014104
25.867,0.0022631
25.871,0.0090486
25.875,0.008449
25.879,-0.0036582
25.883,0.0026599
25.887,0.013579
25.891,-0.0014128
25.895,0.0057407
25.898,0.00012449
25.902,0.00022798
25.906,0.00069128
25.91,0.012977
25.914,0.0070653
25.918,0.0094805
25.922,0.0027331
25.926,0.0056556
25.93,0.012407
25.934,-0.0026049
25.938,0.0011623
25.941,0.013737
25.945,0.018435
25.949,0.00022378
25.953,0.0092868
25.957,-0.0027479
25.961,0.010692
25.965,0.0070625
25.969,-0.00086955
25.973,0.010137
25.977,0.015725
25.98,0.0058684
25.984,0.00073693
25.988,-0.0008184
25.992,-0.0018065
25.996,0.009604
26,0.0089703
26.004,0.00083564
26.008,0.011567
26.012,-0.0013832
26.016,0.016621
26.02,-0.0089848
26.023,0.0040635
26.027,0.011239
26.031,0.0058954
26.035,0.0060518
26.039,0.0020227
26.043,0.019453
26.047,0.0022566
26.051,0.01041
26.055,0.01401
26.059,0.0030392
26.063,0.01574
26.066,0.008774
26.07,-0.0046665
26.074,0.0027782
26.078,0.005311
26.082,0.01098
26.086,0.011509
26.09,0.011269
26.094,-0.0041079
26.098,-0.0049043
26.102,0.015203
26.105,0.01141
26.109,0.0085169
26.113,0.016652
26.117,0.018954
26.121,0.0006117
26.125,0.0065045
26.129,0.0093289
26.133,0.0071535
26.137,0.0077393
26.141,0.0076952
26.145,0.014053
26.148,-0.012997
26.152,0.0064627
26.156,0.0047589
26.16,0.0031793
26.164,0.007416
26.168,0.010049
26.172,0.0041453
26.176,0.0062372
26.18,-0.0055251
26.184,-0.001628
26.188,0.0037665
26.191,0.0053577
26.195,-0.0008642
26.199,-0.0016119
26.203,0.011065
26.207,0.0076404
26.211,0.016383
26.215,0.010509
26.219,-0.0015209
26.223,-0.0088346
26.227,0.0079961
26.23,0.005541
26.234,0.011136
26.238,0.013654
26.242,0.0056719
26.246,0.0079992
26.25,0.0017268
26.254,0.015269
26.258,0.0071696
26.262,0.0031219
26.266,0.0037477
26.27,0.019894
26.273,0.010613
26.277,0.0099132
26.281,0.0092068
26.285,0.0099318
26.289,0.010002
26.293,0.0067121
26.297,0.018822
26.301,0.0050953
26.305,0.00087505
26.309,0.0039329
26.313,0.01519
26.316,0.012304
26.32,0.015018
26.324,0.0051908
26.328,0.0077814
26.332,-0.0060561
26.336,0.013584
26.34,0.0063363
26.344,0.0077545
26.348,0.014807
26.352,0.0059431
26.355,0.011049
26.359,0.0029077
26.363,0.0040732
26.367,0.011439
26.371,0.0058865
26.375,-0.0038414
26.379,0.0033773
26.383,0.027804
26.387,0.010818
26.391,0.0089448
26.395,0.00455
26.398,-0.005512
26.402,0.0081219
26.406,-0.014853
26.41,0.00016465
26.414,-0.0037246
26.418,0.0050677
26.422,0.014318
26.426,0.01062
26.43,0.0041011
26.434,-0.0040525
26.438,0.0037788
26.441,-0.00086426
26.445,0.010417
26.449,0.0030459
26.453,0.017024
26.457,0.0060668
26.461,-0.0038489
26.465,0.00754
26.469,0.012191
26.473,0.0037384
26.477,0.011677
26.48,0.0096896
26.484,0.0099318
26.488,0.0048198
26.492,0.006185
26.496,0.0061694
26.5,0.0063114
26.504,-0.0029301
26.508,0.0073848
26.512,-0.0007784
26.516,0.0086222
26.52,-0.00051276
26.523,0.017321
26.527,0.01337
26.531,0.0035666
26.535,0.021746
26.539,0.014958
26.543,0.012727
26.547,-0.0080852
26.551,-0.0023742
26.555,0.0017374
26.559,0.0045867
26.563,-0.0021785
26.566,0.011834
26.57,0.0034904
26.574,0.0059098
26.578,0.0030797
26.582,0.0062878
26.586,0.016691
26.59,-0.0057721
26.594,0.00059497
26.598,0.0042366
26.602,0.011544
26.605,0.00030036
26.609,0.0036261
26.613,0.01207
26.617,-0.0017988
26.621,0.014157
26.625,0.0091085
26.629,0.010697
26.633,0.0065403
26.637,-0.00042922
26.641,-0.0046617
26.645,0.0078771
26.648,0.012171
26.652,0.012731
26.656,0.0076297
26.66,0.02057
26.664,0.010887
26.668,0.0073561
26.672,0.011555
26.676,0.0070567
26.68,0.016873
26.684,0.023598
26.688,0.020487
26.691,0.015393
26.695,0.0044876
26.699,0.010056
26.703,0.017827
26.707,0.014807
26.711,0.02542
26.715,0.020518
26.719,0.0058161
26.723,0.020472
26.727,0.020734
26.73,0.028377
26.734,0.01656
26.738,0.017695
26.742,0.0044388
26.746,0.011898
26.75,0.0040149
26.754,0.012881
26.758,0.0078164
26.762,0.0037826
26.766,0.012639
26.77,0.0067003
26.773,0.021689
26.777,0.028554
26.781,0.013887
26.785,0.014708
26.789,-0.0013059
26.793,0.02294
26.797,0.0077937
26.801,0.014909
26.805,0.010762
26.809,0.01473
26.813,0.011835
26.816,0.013497
26.82,0.0051215
26.824,0.013582
26.828,0.0020385
26.832,0.011642
26.836,0.013499
26.84,0.010022
26.844,0.014104
26.848,0.017928
26.852,0.00034377
26.855,0.0013362
26.859,0.0072952
26.863,0.014762
26.867,0.014219
26.871,0.0092783
26.875,0.015876
26.879,0.026407
26.883,0.0039367
26.887,0.0053547
26.891,-0.0019051
26.895,0.011656
26.898,0.01606
26.902,0.0076602
26.906,0.017988
26.91,0.0087599
26.914,0.012295
26.918,0.017892
26.922,0.014949
26.926,0.012994
26.93,0.02075
26.934,0.0040905
26.938,0.0072066
26.941,0.012608
26.945,0.0080877
26.949,0.0067682
26.953,0.015987
26.957,0.0073995
26.961,0.013825
26.965,0.0097428
26.969,0.0079639
26.973,0.014306
26.977,0.013177
26.98,-0.0028003
26.984,0.0087613
26.988,0.0034954
26.992,0.011863
26.996,0.005971
27,0.010966
27.004,0.019995
27.008,0.023241
27.012,0.016901
27.016,-5.8616e-05
27.02,0.02154
27.023,0.018649
27.027,0.01271
27.031,0.027996
27.035,0.0074751
27.039,0.023364
27.043,0.0027997
27.047,0.0077356
27.051,0.0021547
27.055,0.014337
27.059,0.0129
27.063,0.0057778
27.066,0.00057807
27.07,-0.0083563
27.074,0.0041487
27.078,0.00083779
27.082,0.015627
27.086,0.01843
27.09,-0.0035636
27.094,-0.0020059
27.098,0.0067386
27.102,0.016653
27.105,0.018717
27.109,0.020233
27.113,0.00708
27.117,0.0053253
27.121,0.0027717
27.125,0.014068
27.129,0.015637
27.133,-0.00056976
27.137,0.0092574
27.141,0.0064733
27.145,0.014469
27.148,0.018278
27.152,0.018647
27.156,0.013584
27.16,0.0071407
27.164,0.006674
27.168,0.001665
27.172,0.018063
27.176,0.003269
27.18,-0.0044139
27.184,0.0032313
27.188,0.019119
27.191,0.010547
27.195,0.0062195
27.199,0.010449
27.203,0.012017
27.207,0.012613
27.211,0.0083836
27.215,0.025803
27.219,0.016982
27.223,-0.0082495
27.227,0.0023032
27.23,0.0086426
27.234,0.012349
27.238,0.0068931
27.242,0.0087199
27.246,0.0068791
27.25,-6.4752e-05
27.254,0.02428
27.258,0.0077372
27.262,0.02544
27.266,0.0026148
27.27,0.0070659
27.273,-0.00031272
27.277,0.0030212
27.281,0.015616
27.285,0.014735
27.289,0.0032884
27.293,0.010532
27.297,0.0062311
27.301,0.015013
27.305,0.0035381
27.309,0.019862
27.313,-0.0021259
27.316,0.010943
27.32,-0.0017412
27.324,0.0038638
27.328,0.0013666
27.332,0.019851
27.336,0.0076564
27.34,0.011023
27.344,-0.0015422
27.348,0.001817
27.352,0.011026
27.355,0.0078067
27.359,0.013181
27.363,0.016676
27.367,0.0019901
27.371,0.00164
27.375,0.011751
27.379,0.0077043
27.383,0.0086974
27.387,0.0024196
27.391,0.0020927
27.395,0.012126
27.398,0.020193
27.402,0.0068873
27.406,0.017276
27.41,0.019114
27.414,0.016877
27.418,0.019809
27.422,0.011405
27.426,-0.0026939
27.43,0.0028705
27.434,0.007706
27.438,-0.0012713
27.441,0.0055179
27.445,0.018436
27.449,0.0040222
27.453,0.010998
27.457,0.011494
27.461,0.022457
27.465,0.0075429
27.469,0.013847
27.473,0.00058924
27.477,0.0031419
27.48,0.011704
27.484,0.013125
27.488,0.0060543
27.492,0.011269
27.496,0.0044802
27.5,0.013218
27.504,0.0041441
27.508,0.010879
27.512,0.011606
27.516,0.019245
27.52,0.0012253
27.523,0.010489
27.527,-0.0033532
27.531,0.009636
27.535,0.014215
27.539,0.001115
27.543,0.0072501
27.547,0.017442
27.551,0.020498
27.555,0.0088053
27.559,0.019277
27.563,0.0076348
27.566,0.0025949
27.57,0.0081
27.574,-0.0034009
27.578,0.0031624
27.582,0.0046605
27.586,0.018791
27.59,0.010548
27.594,0.023311
27.598,0.01187
27.602,0.011105
27.605,0.0069553
27.609,0.0022377
27.613,0.0098126
27.617,0.0060622
27.621,-0.0021983
27.625,0.012483
27.629,0.0076268
27.633,0.010548
27.637,0.0049234
27.641,0.013415
27.645,0.0043842
27.648,0.011254
27.652,0.013624
27.656,0.0081791
27.66,0.0027075
27.664,0.011033
27.668,0.017074
27.672,-0.0058591
27.676,0.01039
27.68,0.010565
27.684,0.01197
27.688,0.0067188
27.691,0.011696
27.695,0.0053312
27.699,0.011043
27.703,0.01738
27.707,0.0086682
27.711,0.0017499
27.715,0.0087564
27.719,0.012712
27.723,0.0079316
27.727,0.021801
27.73,0.0071026
27.734,0.0072857
27.738,0.021759
27.742,0.012185
27.746,0.013644
27.75,0.019093
27.754,0.0049082
27.758,0.0082002
